rawDataOut1,rawDataOut2,rawDataOut3,rawDataOut4,rawDataOut5,rawDataOut6,rawDataOut7,rawDataOut8
40514,39130,40593,39605,39249,39486,39605,39723
40632,40474,40356,39170,39091,39486,39525,39644
40474,41699,40474,39328,39367,39644,39605,39842
39367,43122,40395,39644,39684,39842,39644,40000
38735,44031,40000,39842,39842,39842,39684,40000
39328,43636,39723,39802,39802,39802,39763,40316
39881,42490,39723,39723,39565,39960,39763,40474
39881,40869,39565,39723,39644,40672,39723,40158
39605,39565,39486,40079,40158,41225,39763,39644
39486,38774,39130,40237,40474,41541,39723,39367
39763,38458,38695,39921,40276,40672,39684,39565
40039,38616,38735,39802,40118,39684,39723,39802
39723,38537,38893,39723,39842,38933,39723,39802
39407,37747,39249,39486,39486,38695,39644,39723
39249,36917,39565,39446,39486,38933,39644,39644
39051,36798,39802,39525,39723,39367,39605,39565
39328,37233,39842,39644,39960,39644,39605,39486
40316,37628,39802,39723,39921,39842,39605,39525
40948,39565,39802,39723,39921,40000,39644,39802
40711,42174,40158,39723,39842,40039,39644,39960
39446,43083,40514,39723,39723,40118,39723,39960
38221,42411,40988,39684,39684,40118,39723,39921
38537,41265,41502,39723,39525,40000,39684,39881
39881,40514,41423,40000,40000,40197,39723,39960
40435,40237,40790,40316,40632,40435,39763,39921
40316,40118,39842,40118,40672,40435,39802,39763
40593,40474,39091,39684,40158,40276,39881,39960
40869,40356,38814,39446,39684,40197,39802,40197
40948,39051,39051,39486,39763,40197,39723,40158
40869,38063,39446,39605,39802,40079,39684,39960
40039,37905,40079,39881,39881,40039,39684,39684
38261,38063,40039,40000,39921,40079,39605,39367
37786,36996,39288,39960,39684,39960,39565,39605
37786,36324,38419,39802,39644,39881,39644,39802
38656,37984,38024,39684,39565,39723,39644,39842
39288,40435,38577,39644,39446,39486,39605,39446
39565,42134,39684,39723,39407,39407,39525,39328
40000,42688,40395,39763,39763,39486,39525,39644
40197,43004,40553,39644,39802,39525,39605,39960
40356,42648,40197,39881,39486,39525,39644,40158
40435,41897,39802,40039,39644,39367,39644,40158
40276,40830,39802,39842,39960,39328,39684,40079
39960,40079,40237,39565,39960,39288,39723,40000
39565,39565,40830,39407,40237,39684,39763,39921
39328,39328,41225,39486,40593,40276,39802,39881
39802,39525,41265,39802,40790,40593,39802,39960
40474,39802,40711,39684,40158,40395,39605,39921
40948,40039,39486,39723,40000,39960,39565,39960
40909,40237,38695,39644,40079,39842,39684,39921
40830,40118,38854,39565,39644,39565,39605,39684
40435,39802,39881,39684,39249,39407,39565,39525
38893,39367,40474,39802,39130,39288,39644,39446
37826,39367,40395,39921,39209,39328,39644,39407
38379,40158,39486,40237,39367,39446,39644,39684
39288,40909,38379,40435,39407,39921,39644,39802
39170,39525,37905,40197,39288,40435,39684,39802
38577,37628,38419,39921,39644,40276,39723,39763
38024,37668,40197,39723,40237,39960,39802,39842
37826,38616,41739,39684,40356,39644,39802,39921
38695,40197,42134,39802,40514,39684,39842,40237
40079,41304,41462,39881,40672,39644,39802,40435
40869,41660,39960,39486,40276,39367,39605,40237
41897,41344,38616,39209,39486,39130,39525,40039
42727,41107,38142,39130,38972,39288,39525,40276
42411,41027,38458,39407,39367,39960,39763,40593
40988,40790,39170,39802,39842,40553,39723,40158
39881,40672,39763,40079,40039,40553,39644,39486
39446,40316,40039,40237,40316,40435,39802,39091
39170,39525,39684,40158,40395,40197,39723,38735
38774,38972,39525,39881,40276,40039,39565,38814
39328,39328,40276,39763,40079,39921,39605,39486
40118,40039,41462,39802,39684,39565,39644,40079
40000,40474,42134,39723,39367,39249,39486,40237
39170,40276,41937,39684,39446,38933,39446,40158
38616,39802,41344,39842,39644,38814,39486,40000
37944,39209,40237,40039,39684,39012,39407,39723
37549,38814,39012,39881,39723,39130,39446,39605
37549,38616,38300,39644,39763,39288,39605,39644
37984,38577,38024,39446,39446,39644,39842,39684
38695,38695,38142,39565,39328,40079,40000,39802
40632,39170,38735,39881,39802,40988,40118,40158
42371,39684,39802,40237,40593,41897,40276,40514
42569,40316,40909,40395,41027,41778,40276,40474
42529,40790,41344,40197,40632,40197,39763,39842
42450,41027,41186,39842,39960,39170,39446,39525
41699,40553,40395,39605,39525,38972,39446,39565
40474,39763,39565,39328,39209,38893,39446,39644
39367,39288,39288,39209,39051,39209,39486,39684
38419,39209,39288,39407,39367,39842,39565,39605
37865,39209,39209,39684,39802,40237,39644,39605
37470,39170,39130,39921,40039,40276,39842,39763
36719,38933,39130,39842,40118,40672,39881,39842
36877,39012,39249,39684,39723,40395,39684,39644
37233,38735,39209,39328,38656,39565,39288,38735
40316,39960,39802,39525,38814,39644,39486,39091
44111,41581,40039,40039,39763,40356,40039,40711
42569,41423,39170,40237,40632,40276,39802,40474
40237,40790,38695,40158,40909,39644,39486,39723
39881,40316,39209,39802,40632,39091,39525,39842
40039,39802,40276,39605,40197,38814,39525,40079
40118,39842,41146,39842,40158,39170,39565,39684
40276,40830,41581,40039,40158,39644,39644,39288
40237,42095,41383,39921,39921,39684,39644,39486
39486,42450,40988,39881,39881,39565,39723,39921
39012,41344,40593,40039,40039,39881,39921,40237
38814,39644,39881,39881,39960,40672,40000,40276
38379,38221,39446,39723,39723,41107,39960,40158
38498,37865,39328,39684,39525,40988,39881,39960
38933,38498,39525,39644,39486,40553,39802,39446
40158,38972,39565,39605,39644,40237,39802,39170
41107,38577,39249,39605,39723,40000,39763,39605
41186,38735,39130,39763,39842,39763,39684,40000
40039,39921,39130,39763,39842,39565,39605,40237
39367,40237,39328,39525,39565,39407,39525,40435
39723,40000,39723,39367,39288,39051,39367,39921
40118,40237,40079,39486,39684,39170,39209,38893
40672,41265,40395,39802,40395,39525,39328,38933
40988,40909,40316,40118,40790,39881,39644,39763
40514,40474,40158,40039,40276,39763,39723,40158
38854,40316,40079,39921,39525,39684,39684,40197
36719,39446,39960,39763,39209,39723,39684,40000
37233,38458,39960,39605,39170,39802,39881,39960
39565,37786,40000,39565,39367,40158,40039,40079
40356,36640,39763,39723,39684,40316,39921,39921
39881,36166,39446,39881,39842,40276,39723,39367
39446,38024,39249,39881,39960,39565,39407,38933
39565,41462,39525,39842,40197,39012,39249,39170
39960,42767,39763,39881,40276,39051,39407,39684
40316,41581,39921,39802,40039,39249,39565,40039
40395,40632,39921,39644,39684,39407,39605,40039
40158,41462,39802,39486,39486,39565,39644,40000
39921,42411,39842,39525,39644,39723,39723,39921
39763,41581,40000,39960,40197,40000,39881,40079
39723,39525,40000,40197,40553,40237,39802,40118
39723,38300,39960,40079,40237,40039,39723,39921
39723,38182,39921,39723,39842,39842,39723,39802
39763,38972,40039,39763,39723,40000,39763,39802
39763,40039,40079,39921,39960,40276,39842,39881
39802,40514,40079,39881,39960,40316,39881,39921
39802,40672,40237,39960,40118,40356,39921,40039
39842,40869,40118,40079,40039,40039,39723,39881
39684,40593,39960,39802,39565,39605,39446,39565
39605,40039,39763,39565,39486,39367,39367,39565
39525,39367,39644,39565,39367,39565,39446,39684
39486,38340,39525,39565,39170,39684,39565,39684
39446,37470,39486,39644,39328,39525,39684,39723
39407,37470,39565,39763,39684,39565,39605,39684
39763,38814,39763,39921,40039,39802,39723,39763
40079,40158,39842,40000,40118,39881,39763,39960
40118,39881,39684,39881,40039,39802,39723,39881
39921,40514,39446,39525,40197,39525,39644,39684
39763,40869,39328,39288,40316,39367,39605,39723
39684,39209,39446,39328,40158,39170,39684,39842
39881,40197,39644,39723,40118,38182,39881,40079
39525,43004,39881,39842,39842,37233,39802,40158
38933,42332,40039,39842,39209,37075,39605,40000
39051,40593,40118,39921,39051,38340,39605,39960
39921,40435,40158,39842,39051,39960,39565,40039
40356,40751,40118,39802,39051,40988,39486,39842
40395,40593,40158,39881,39288,41818,39486,39763
40316,40079,40276,39921,39605,42292,39644,39684
39486,39644,40276,39960,40000,41897,39763,39723
39525,39407,40079,39921,40237,41304,39881,39802
40079,38854,39644,39881,40514,41344,39802,39802
40356,37747,39525,39881,40751,41225,39802,39763
40118,37470,39644,39802,40751,41107,39881,39842
40039,37786,40039,39565,40356,40632,39921,39921
40197,38616,40276,39407,40079,39960,39881,39842
38972,39446,40316,39525,40039,38893,39723,39446
37470,40237,40672,39802,40158,38103,39565,39249
38024,40711,40553,39802,39881,37193,39446,39605
39367,40711,40079,39605,39130,37035,39407,39842
40118,40593,39842,39525,38695,38142,39486,40079
40553,40395,39842,39723,38933,39921,39565,40197
40474,40158,39605,39802,38814,41265,39684,40079
40000,39842,39328,40000,39170,41225,39723,40039
39605,39605,39051,40197,39960,40435,39763,39960
39288,40079,38972,40158,40553,39881,39802,39723
39170,40356,38774,39960,40711,39842,39684,39763
39565,39881,38735,39842,40711,40237,39723,39763
39802,39644,38814,39605,40474,40435,39723,39723
39565,39367,39170,39605,40118,40395,39605,39565
38893,39051,39565,39605,39763,40395,39605,39525
39486,39130,39921,39605,39605,40553,39723,39881
40909,39525,40118,39802,39367,40711,39921,40118
41383,39842,40553,39802,38972,40672,39802,40000
40830,39842,40830,39644,38774,40474,39644,39723
39605,39960,40869,39367,39249,40158,39565,39605
39367,40711,40830,39644,40118,40039,39763,39960
39842,41344,40593,40158,40711,40039,39881,40316
39486,40988,39763,40276,40593,40000,39881,40237
38498,40276,39170,39921,40079,39723,39802,39842
38063,39921,39209,39684,39921,39723,39605,39605
38419,39960,39565,39525,39644,39525,39525,39367
38933,40039,40000,39565,39407,39012,39525,39407
40632,40237,40276,39684,39525,38537,39684,39842
42174,40356,40118,39842,39802,38735,39684,40158
40790,40079,39881,39881,40000,39288,39644,40039
39486,39525,40079,39763,40039,39842,39684,39842
39446,39367,40988,39763,40039,40197,39723,39842
38933,39565,41304,39881,39921,40276,39684,39802
39209,39684,41107,39723,39763,40079,39605,39881
40553,39842,40474,39684,39644,39842,39605,40237
40553,39763,38972,39842,39644,39763,39684,40316
39446,39209,37786,39960,39881,39763,39644,39723
38774,39170,37510,40197,40356,39881,39525,38933
39288,39763,37786,40158,40316,39763,39644,39051
40632,40316,38340,39842,40039,39644,39763,39881
41620,40514,39012,39684,39842,39644,39723,40395
41778,40435,39170,39763,40000,39644,39723,40356
40948,40039,39367,39565,39842,39407,39684,39960
39684,39565,40000,39565,39565,39288,39525,39723
39525,39605,40948,39763,39565,39446,39525,39921
40158,40197,41858,39881,39881,40000,39802,40237
39881,40830,41778,39960,40079,40514,40000,40474
39170,41186,41186,39921,40000,40514,40079,40316
38695,41146,40830,39842,39763,40158,39802,39960
38893,40593,40632,39644,39446,39842,39605,39802
39091,39723,40435,39367,39091,39605,39565,40039
38458,39367,40276,39249,38814,39446,39367,39842
37786,39051,39763,39407,39012,39407,39170,38458
37747,38498,39486,39960,39723,39565,39209,37668
38340,38458,39684,40079,40118,39802,39486,38458
39328,39051,39842,39802,40079,39881,39960,39446
41858,39881,39723,39802,40158,39921,40118,40276
43439,40079,39328,40000,40356,39684,39960,40751
42332,39960,38616,39921,40395,39644,39881,40711
41383,40118,38221,39684,40000,39407,39723,40593
41423,40435,38142,39763,39842,39565,39644,40474
40435,40514,38261,39960,40474,39921,39605,40158
39723,40356,38854,40039,41186,40079,39605,40237
39130,39881,39525,39960,40593,40118,39684,40711
36996,39446,39960,39921,39565,39960,39684,40553
36522,39407,40276,39644,39288,39723,39723,40276
38774,39525,40435,39565,39091,39605,39684,40079
39881,39644,40632,39684,39130,39723,39644,39723
39328,39684,40672,39802,39407,39881,39605,39170
39881,39881,40395,39723,39446,40039,39644,38774
40909,40118,40158,39644,39486,40356,39565,38814
40000,40039,39921,39605,39644,40237,39525,38735
38182,39802,39605,39644,39684,39684,39367,38340
38498,39684,39565,39881,39881,39486,39407,38735
39881,39723,39644,40000,40276,39763,39684,39644
40395,40000,39802,39881,40593,39763,39802,40197
41462,40435,39881,39723,40593,39367,39921,40632
42767,40830,39921,39960,40672,39525,40118,41107
41897,40909,40000,40158,40790,39921,40356,41186
40237,40553,40039,40118,40395,39723,40039,41225
39525,39921,39921,39960,40197,39605,39644,41146
39446,39091,39525,39802,40039,39565,39288,40711
38419,38419,39288,39644,39684,39407,39209,39802
36601,38300,39407,39525,39367,39684,39288,39328
35059,38577,39684,39328,39288,40356,39525,39091
36284,39486,40158,39249,39446,40593,39565,38616
39170,41027,41107,39723,40039,41067,39763,37944
41660,41858,41383,40118,40395,41344,39881,37984
42371,41462,41146,40039,40079,40474,39763,38933
41818,40751,40790,39802,39644,40276,39723,40039
41660,40237,40395,39763,39605,40079,39763,40632
41699,39605,39723,39446,39367,39525,39684,40197
41660,38933,38893,39288,39130,39209,39446,39684
40909,38537,38458,39565,39446,39209,39565,39921
38774,38458,38419,40000,40079,39525,39644,39881
37075,39209,38616,40118,40158,39249,39684,39644
36680,40474,38933,40000,39960,38814,39644,39881
37747,40632,39091,39684,39644,38695,39644,40118
39446,40039,39486,39367,39170,39012,39605,39960
40711,40118,40197,39367,39209,39723,39763,39881
40356,40553,40869,39802,39486,40474,39881,39921
38735,40197,41344,39842,39802,40553,39881,39763
38972,39565,41462,39684,40079,40395,39763,39684
39328,40276,40988,39723,40474,40514,39684,39525
38103,40158,40197,39763,41146,40711,39605,39367
38182,38933,39644,39763,41502,40395,39565,39328
41699,38735,39209,39605,40672,39723,39407,39525
43201,39881,39288,39644,39684,39486,39525,39763
42332,40988,39644,39605,39288,39051,39723,40237
42688,41660,39802,39960,39170,38142,39881,40593
41541,41067,39763,40079,39012,38498,39763,40395
38537,39802,39565,39921,38972,39012,39565,39684
37470,39051,39684,39723,38695,38261,39407,39130
39605,38814,39921,39802,38854,38458,39605,39446
39921,38498,39921,39881,39367,40000,39763,39723
38656,38340,39605,39842,39921,41027,39723,39723
37865,38221,39328,39763,40237,41146,39605,39367
39802,41146,40039,39249,39288,39328,39565,39644
40632,43083,39446,39209,39486,40039,39842,39842
40593,43439,39051,39446,40000,40790,40000,40079
39407,42569,39012,39644,40237,40593,39842,40197
38933,40395,39130,39684,39960,39960,39763,40435
39367,38063,39605,39921,40000,39802,39802,40474
40118,36601,40276,40197,40197,40079,39723,39605
40395,36798,40514,40158,40158,40197,39684,39367
40316,37628,40435,39842,39763,39960,39644,40079
39921,38577,40237,39644,39446,39684,39486,39802
39605,39170,40039,39921,39644,39684,39249,38735
38537,39012,39605,40158,39842,39763,39209,38458
38063,38300,38972,40158,40118,39921,39605,39367
39446,38221,38893,39960,40197,40039,40000,40197
41265,39684,39525,39763,40039,40237,40356,40672
41383,41383,40514,39605,39723,40079,40356,40711
40435,42095,40988,39763,39921,39842,39960,40356
39012,41739,40435,39763,40039,39367,39605,39842
37273,40632,39723,39446,39763,38972,39328,39446
36284,38814,39130,39091,39209,38695,38735,38300
37786,39051,39486,39328,39328,39170,38854,38024
41937,42134,40632,40000,40000,40276,39723,39960
42925,43122,41225,40158,39960,40909,39960,40830
41186,42411,41423,40118,39605,40276,39842,40632
40000,42411,41620,40118,39644,39565,39881,40672
40079,42213,41186,40039,39802,39605,39881,40593
40197,41225,40197,39802,39921,39565,39802,39921
40237,41225,39130,39723,39921,39605,39881,39842
39960,41581,38616,39723,39802,39763,39802,39684
39012,41107,38972,39842,40000,40158,39684,38774
39525,39960,39407,39802,39960,40316,39684,38656
40632,38537,39605,39802,39684,40000,39723,39525
40474,37865,39525,39802,39960,39960,39802,40316
39565,36680,38972,39960,40395,40158,39842,40474
38103,34624,38340,39723,40276,40000,39723,40158
37431,31739,38103,39407,39921,39763,39525,39802
38498,31660,38695,39288,39525,39605,39407,39525
39249,36601,39763,39091,39209,39328,39328,39328
39802,42885,40790,39288,39012,39170,39446,39367
40474,46403,41541,39605,39130,39446,39605,39525
40553,46640,42253,39763,39486,40000,39802,39684
40237,44941,42411,40000,40039,40276,39842,39921
38182,43399,41897,40079,40356,40158,39802,39960
37549,42609,41107,39921,40356,39881,39842,40000
39684,41818,39960,39565,39960,39644,39763,40276
41027,40672,38735,39328,39565,39565,39684,40237
40948,39012,37707,39525,39605,39525,39565,39802
40118,37707,37391,40158,40079,39525,39367,39170
39842,36601,37668,40553,40435,39763,39367,39249
39921,36680,38103,40158,40276,39763,39407,39644
39921,37628,38656,39684,39644,39446,39525,39763
39723,38933,39249,39486,38933,39249,39565,39763
39644,39565,39486,39723,39012,39407,39605,39684
39684,39565,39486,39960,39486,39565,39644,39763
39802,40276,39565,39881,39842,39644,39723,40039
39921,41423,40079,39723,40237,39921,39842,40237
39644,42055,40237,39565,40474,40316,40000,40276
39407,41620,40435,39644,40474,40751,40158,40276
39328,40158,40909,39881,40553,40869,40118,40197
39170,38300,41027,39763,40158,40514,40079,39881
39170,36561,40632,39605,39763,39960,39802,39763
39684,36166,40356,39763,39605,39723,39605,39881
40197,35771,39960,39881,39605,39842,39565,39881
40158,35810,39525,39921,39644,40118,39486,39367
39802,37786,38933,39842,39644,39921,39288,38854
39802,40751,38735,39723,39644,39723,39288,39091
39921,43083,39130,39644,39525,39525,39407,39605
39525,43201,39644,39644,39565,39644,39644,40000
38814,40988,39802,39723,39802,39881,39842,40158
38933,39802,39565,39842,39960,39921,39842,40000
39921,41581,39565,39684,39763,39802,39802,39802
40237,43083,40118,39565,39525,39644,39723,39881
40197,43360,41146,39684,39644,39644,39763,40039
40276,42925,42095,39881,39802,39605,39763,40079
40435,41502,42055,39921,39802,39249,39684,40039
40197,39802,41383,39802,39684,38854,39565,40000
40118,38419,40593,39763,39684,39012,39644,39960
40158,37668,39881,39921,39842,39763,39802,40000
40000,37786,39486,40197,40118,40276,39881,40118
39842,38024,39249,40237,40474,40632,39921,40079
39605,37707,39209,40158,40316,40711,39723,39881
39328,37707,39328,39723,39842,40316,39644,39605
39328,39842,39288,39249,39486,40000,39565,39407
39723,41541,39367,39209,39367,39723,39605,39446
40197,42174,39842,39486,39644,39802,39565,39644
40356,42648,39565,39723,39802,39960,39644,39960
40197,40711,38379,39486,39723,39960,39723,40039
39960,37154,38182,39209,39644,39605,39684,39881
39525,36008,39328,39288,39644,39525,39605,39842
39249,37786,40316,39644,39921,39565,39605,39723
39249,40118,40632,40118,40000,39565,39644,39644
39170,41265,40395,40356,40079,39605,39644,39644
38854,41383,39960,40356,40079,39723,39644,39763
39288,41186,39921,40356,40118,39763,39723,39960
39802,41265,40237,40000,39921,39644,39684,39921
39960,41541,40751,39565,39644,39565,39525,39723
39842,41265,41107,39170,39486,39486,39486,39605
39763,40356,40909,39288,39486,39407,39446,39684
39842,39644,40790,39605,39723,39525,39605,39763
39960,39525,40514,39842,39723,39644,39644,39921
39842,39921,39921,39842,39565,39605,39525,39881
39446,40553,38933,39881,39842,39921,39684,39802
39407,40751,38063,39723,39960,40237,39842,39921
39802,40711,37865,39605,39842,40158,39842,40000
40276,41067,38379,39842,40079,40276,40039,40197
40474,42016,39407,40158,40593,40553,40158,40316
40514,41541,40000,40079,40632,40514,39921,40316
40553,39644,40158,39763,40000,40197,39684,40118
40435,38340,40356,39723,39842,39881,39565,39881
40197,38419,40790,40039,39842,39684,39525,39763
39763,39328,41067,40197,39802,39605,39446,39644
38854,39407,40395,40000,39723,39525,39367,39288
38735,38893,39605,40000,39605,39525,39486,39209
39486,39407,39288,39921,39644,39565,39605,39446
39367,39763,38972,39881,39921,39881,39684,39525
38300,38933,38933,39842,40197,39960,39644,39565
37075,38340,38972,39605,40079,39802,39525,39565
37747,39446,39051,39209,39565,39644,39644,39723
39565,40158,39763,39130,39288,39723,39763,39842
40790,39842,40830,39328,39407,39763,39723,39921
40948,40830,41423,39723,39763,39921,39763,40079
40672,40435,40988,40158,40276,40158,39802,40158
40672,38300,39960,40237,40356,40079,39723,40197
40830,38735,39051,39921,40039,39960,39763,40158
40751,40711,38933,39763,39802,39960,39802,40237
40751,39960,39446,39921,40158,40079,39842,40356
40632,38300,40079,39921,40197,40039,39842,40197
39881,39644,40356,39802,40079,39842,39723,39684
39012,41699,40751,39881,40118,40000,39644,39407
38814,42806,41027,39842,40118,40316,39684,39486
39091,43004,41383,39684,40039,40395,39881,39723
39328,42411,41620,39605,39802,40158,39802,39802
39446,40869,41541,39486,39446,39921,39525,39723
39525,38577,41620,39367,39130,39525,39288,39565
39328,36442,41146,39407,39170,39209,39170,39525
39328,35296,40237,39723,39565,39130,39209,39684
39723,35533,39209,40000,39802,39130,39486,39881
39921,37944,38577,40118,39960,39407,39763,39960
39921,40593,38024,39960,40079,39881,39960,39802
39921,41699,37193,39723,39881,39802,39960,39881
40118,41146,36759,39644,39723,39565,39921,40000
40316,38854,36956,39723,39842,39605,39881,40158
40079,37470,37391,39960,40079,39881,39763,40000
39012,39328,38419,39881,39921,40079,39763,39684
38814,41146,39605,39684,39960,40395,39802,39763
39684,40988,40197,39525,39960,40474,39842,39960
40316,39960,40751,39091,39288,39565,39446,39763
40711,39249,41739,39012,38933,38972,39367,39921
40751,39328,42253,39209,39012,39288,39486,40395
39842,40276,42174,39605,39328,39684,39565,40276
38735,41858,41818,40079,40197,40039,39644,39288
39012,42292,41186,40395,40593,40118,39605,38142
38458,41304,40316,40197,40356,39960,39486,38024
38616,40395,39763,39921,39802,39644,39644,39328
41225,40158,39802,39921,39565,39565,39921,40948
42688,39605,39842,40118,39763,39881,40000,41620
41581,37747,39763,40237,40356,40474,40039,40988
40158,36798,39407,40435,41027,40869,39881,39802
39328,37865,38735,40118,40830,40395,39763,39565
39170,39605,38419,39605,40079,39842,39763,40158
39091,40593,38498,39170,39209,39407,39763,40514
38419,40079,38577,39288,39249,39288,39525,39802
37865,39684,38616,39565,39249,39012,39091,38458
36996,40909,38695,39644,39170,38814,38972,37905
36996,42016,38616,39644,39446,39446,39367,38735
39644,42174,38972,39802,40079,40356,39881,39960
41976,41344,39881,40039,40553,40948,40118,40593
42253,40079,40711,40158,40632,40988,40079,40593
41502,39170,41067,40039,40356,40553,40000,40316
40158,39130,41067,39842,39763,40000,39921,40079
38972,38458,40672,39644,39407,39565,39644,39684
38340,36917,40079,39684,39446,39446,39486,39525
38695,37233,39684,39842,39644,39605,39446,39644
39328,39605,39525,39842,39921,40000,39605,39763
39209,41462,39960,39921,40039,40158,39644,39802
39249,41858,40079,39644,39802,39486,39446,39644
40356,42371,40079,39486,39486,38933,39407,39486
40553,42569,40039,39525,39565,39051,39525,39446
39684,41107,40000,39842,39842,39565,39684,39723
39723,39091,40000,39605,39328,39525,39802,39960
39842,37984,40237,39407,39051,39605,39802,40039
39881,38221,40593,39525,39486,40158,40000,40079
39644,39288,41027,39763,39763,40356,39960,39723
38814,39644,40790,39842,39881,40000,39802,39644
38972,40711,40079,39802,39842,39525,39565,39921
39605,41976,39486,39644,39960,39525,39407,39881
40118,42174,39091,39842,40435,40039,39446,39723
40316,41541,39091,40158,40830,40276,39605,39684
40830,41146,39565,40237,40711,40237,39723,40000
40751,40751,40158,40118,40237,40237,39802,40079
39881,40000,40316,39881,39644,39960,39605,39960
39565,38893,40039,39605,39209,39367,39446,39644
39644,38933,39960,39407,39170,39367,39644,39763
39644,39130,39960,39644,39802,39802,39921,40039
39684,38458,39723,39881,40197,40118,39881,40158
39605,38419,39763,39881,40039,40000,39723,40000
39605,39249,40039,39763,39525,39525,39525,39842
39407,38972,40118,39644,39644,39288,39525,39842
39051,38182,40000,39407,39881,39170,39605,39684
39012,39486,39723,39328,39723,38933,39486,39446
39525,39723,39644,39565,39565,39170,39328,39170
39684,37905,39605,39763,39644,39565,39407,39288
39921,37984,39565,39802,39644,39644,39605,39605
40356,40988,39565,39881,39684,39684,39881,40118
40593,42609,39446,39881,39763,39763,40000,40316
40988,42490,39644,39960,40000,40237,40237,40474
41225,42016,39921,39921,40000,40395,40316,40395
40751,41107,39960,39842,39802,40158,40039,40158
40118,40079,39881,39881,39802,40158,39802,40000
39842,40514,39723,39842,40118,40118,39565,39881
39684,40751,39723,39723,40039,39921,39288,39723
39446,39486,39842,39328,39525,39644,39170,39407
39012,38182,40158,39209,39288,39367,39091,39130
38735,38142,40356,39605,39486,39525,39288,39130
38458,38340,40514,40039,40197,39921,39644,39446
38063,37905,40711,40079,40316,40079,39881,39763
38616,38656,40593,39960,39960,39881,39881,40000
39842,39881,40276,39842,39763,39723,39763,40079
40553,40395,39723,39565,39565,39525,39644,39921
40711,40316,39012,39525,39407,39288,39565,39881
40790,40039,38498,39644,39644,39446,39684,40000
40553,39881,38063,39684,39723,39684,39723,39921
40276,39407,38142,39644,39723,40039,39605,39842
39960,38616,38774,39802,39921,40316,39881,39881
39684,38893,40079,40158,40356,40593,40237,40237
39723,40079,41502,40316,40514,40751,40316,40514
40039,41423,41858,40197,40356,40751,40276,40474
40356,41937,41265,39881,40039,40276,39842,40197
39881,41186,40751,39565,39605,39723,39407,39763
37826,39644,40395,39525,39881,39644,39130,39486
36126,39249,40435,39723,40158,39723,39209,39328
38300,39328,40474,39921,40158,39723,39446,39644
41699,39525,39881,40000,39644,39446,39565,39921
42885,39960,38774,40000,39525,39328,39684,39960
41186,40751,38063,40158,39684,39446,39565,39605
37905,41186,37589,39960,39802,39644,39565,39130
37865,41265,37707,40039,40316,40000,39684,38972
38537,40039,39170,40118,40474,40118,39763,39605
39407,37193,40632,39842,40079,39960,39763,40197
40158,36047,41818,39446,39802,39960,39802,40474
39684,38577,42213,39091,39525,39802,39802,40118
38221,41462,41897,38774,38972,39367,39328,39091
40316,42688,41581,39091,39249,39525,39565,39446
44545,43083,41423,39881,40000,40039,40158,41146
44071,41502,40632,40118,40237,40118,40000,41067
40948,39921,39288,40039,40118,40079,39723,40158
37312,39486,38024,40079,40039,40158,39644,39288
36956,39288,37668,40118,39802,40276,39605,39051
38893,38854,37391,39960,39565,40000,39605,39446
39921,38656,37193,39842,39684,39367,39446,39842
38933,38695,37431,39881,40000,39130,39446,39802
37628,38656,38063,39644,39881,39091,39486,39486
37984,38814,39486,39446,39446,39012,39446,39249
38893,40039,41383,39763,39565,39605,39525,39446
39605,42174,42767,40197,40237,40632,39921,39881
40632,44150,42767,40316,40672,41344,40276,40356
40948,43399,41858,40197,40593,41225,40316,40395
40909,41620,41265,39802,40079,40395,40000,40316
40711,39367,40988,39565,39802,39921,39842,40079
40474,37312,40395,39565,39644,39644,39605,39881
40197,37154,39486,39525,39525,39170,39367,39842
39802,38261,39012,39407,39446,39051,39367,39842
39525,38221,39091,39328,39446,39170,39565,39723
39328,38063,39209,39446,39486,39091,39486,39525
39328,38498,38933,39644,39446,39051,39407,39130
39170,39960,38419,39763,39723,39565,39525,39170
38933,40672,38300,40000,40079,40118,39644,39407
38103,38814,38537,39921,40039,40079,39605,39446
38221,37984,38656,39446,39407,39684,39605,39486
39644,40118,38616,39091,39012,39486,39525,39605
40790,42688,38735,39170,39209,39644,39605,39842
40988,43241,39091,39249,39486,39723,39723,40039
40909,40988,39367,39407,39723,39802,39763,40316
40988,38261,39881,39763,39960,39842,39802,40435
40593,37707,40711,40000,40316,40039,39763,40356
39723,38774,41581,40276,40593,40474,39881,40276
39170,39842,42134,40356,40474,40593,40000,40197
39525,41107,42450,40079,40039,40158,39763,39921
40079,41818,42332,40197,40039,40118,39723,39486
40118,41660,41858,40553,40395,40197,39842,39486
39565,41027,41107,40830,40514,40158,39802,39565
38498,40474,39842,40356,40197,39842,39565,39565
37786,39288,38537,39684,39881,39605,39486,39644
39091,37470,37470,39249,39525,39328,39525,39802
40435,36877,37273,38933,39091,39130,39644,40079
39802,41146,40039,39249,39288,39328,39565,39644
40632,43083,39446,39209,39486,40039,39842,39842
40593,43439,39051,39446,40000,40790,40000,40079
39407,42569,39012,39644,40237,40593,39842,40197
38933,40395,39130,39684,39960,39960,39763,40435
39367,38063,39605,39921,40000,39802,39802,40474
40118,36601,40276,40197,40197,40079,39723,39605
40395,36798,40514,40158,40158,40197,39684,39367
40316,37628,40435,39842,39763,39960,39644,40079
39921,38577,40237,39644,39446,39684,39486,39802
39605,39170,40039,39921,39644,39684,39249,38735
38537,39012,39605,40158,39842,39763,39209,38458
38063,38300,38972,40158,40118,39921,39605,39367
39446,38221,38893,39960,40197,40039,40000,40197
41265,39684,39525,39763,40039,40237,40356,40672
41383,41383,40514,39605,39723,40079,40356,40711
40435,42095,40988,39763,39921,39842,39960,40356
39012,41739,40435,39763,40039,39367,39605,39842
37273,40632,39723,39446,39763,38972,39328,39446
36284,38814,39130,39091,39209,38695,38735,38300
37786,39051,39486,39328,39328,39170,38854,38024
41937,42134,40632,40000,40000,40276,39723,39960
42925,43122,41225,40158,39960,40909,39960,40830
41186,42411,41423,40118,39605,40276,39842,40632
40000,42411,41620,40118,39644,39565,39881,40672
40079,42213,41186,40039,39802,39605,39881,40593
40197,41225,40197,39802,39921,39565,39802,39921
40237,41225,39130,39723,39921,39605,39881,39842
39960,41581,38616,39723,39802,39763,39802,39684
39012,41107,38972,39842,40000,40158,39684,38774
39525,39960,39407,39802,39960,40316,39684,38656
40632,38537,39605,39802,39684,40000,39723,39525
40474,37865,39525,39802,39960,39960,39802,40316
39565,36680,38972,39960,40395,40158,39842,40474
38103,34624,38340,39723,40276,40000,39723,40158
37431,31739,38103,39407,39921,39763,39525,39802
38498,31660,38695,39288,39525,39605,39407,39525
39249,36601,39763,39091,39209,39328,39328,39328
39802,42885,40790,39288,39012,39170,39446,39367
40474,46403,41541,39605,39130,39446,39605,39525
40553,46640,42253,39763,39486,40000,39802,39684
40237,44941,42411,40000,40039,40276,39842,39921
38182,43399,41897,40079,40356,40158,39802,39960
37549,42609,41107,39921,40356,39881,39842,40000
39684,41818,39960,39565,39960,39644,39763,40276
41027,40672,38735,39328,39565,39565,39684,40237
40948,39012,37707,39525,39605,39525,39565,39802
40118,37707,37391,40158,40079,39525,39367,39170
39842,36601,37668,40553,40435,39763,39367,39249
39921,36680,38103,40158,40276,39763,39407,39644
39921,37628,38656,39684,39644,39446,39525,39763
39723,38933,39249,39486,38933,39249,39565,39763
39644,39565,39486,39723,39012,39407,39605,39684
39684,39565,39486,39960,39486,39565,39644,39763
39802,40276,39565,39881,39842,39644,39723,40039
39921,41423,40079,39723,40237,39921,39842,40237
39644,42055,40237,39565,40474,40316,40000,40276
39407,41620,40435,39644,40474,40751,40158,40276
39328,40158,40909,39881,40553,40869,40118,40197
39170,38300,41027,39763,40158,40514,40079,39881
39170,36561,40632,39605,39763,39960,39802,39763
39684,36166,40356,39763,39605,39723,39605,39881
40197,35771,39960,39881,39605,39842,39565,39881
40158,35810,39525,39921,39644,40118,39486,39367
39802,37786,38933,39842,39644,39921,39288,38854
39802,40751,38735,39723,39644,39723,39288,39091
39921,43083,39130,39644,39525,39525,39407,39605
39525,43201,39644,39644,39565,39644,39644,40000
38814,40988,39802,39723,39802,39881,39842,40158
38933,39802,39565,39842,39960,39921,39842,40000
39921,41581,39565,39684,39763,39802,39802,39802
40237,43083,40118,39565,39525,39644,39723,39881
40197,43360,41146,39684,39644,39644,39763,40039
40276,42925,42095,39881,39802,39605,39763,40079
40435,41502,42055,39921,39802,39249,39684,40039
40197,39802,41383,39802,39684,38854,39565,40000
40118,38419,40593,39763,39684,39012,39644,39960
40158,37668,39881,39921,39842,39763,39802,40000
40000,37786,39486,40197,40118,40276,39881,40118
39842,38024,39249,40237,40474,40632,39921,40079
39605,37707,39209,40158,40316,40711,39723,39881
39328,37707,39328,39723,39842,40316,39644,39605
39328,39842,39288,39249,39486,40000,39565,39407
39723,41541,39367,39209,39367,39723,39605,39446
40197,42174,39842,39486,39644,39802,39565,39644
40356,42648,39565,39723,39802,39960,39644,39960
40197,40711,38379,39486,39723,39960,39723,40039
39960,37154,38182,39209,39644,39605,39684,39881
39525,36008,39328,39288,39644,39525,39605,39842
39249,37786,40316,39644,39921,39565,39605,39723
39249,40118,40632,40118,40000,39565,39644,39644
39170,41265,40395,40356,40079,39605,39644,39644
38854,41383,39960,40356,40079,39723,39644,39763
39288,41186,39921,40356,40118,39763,39723,39960
39802,41265,40237,40000,39921,39644,39684,39921
39960,41541,40751,39565,39644,39565,39525,39723
39842,41265,41107,39170,39486,39486,39486,39605
39763,40356,40909,39288,39486,39407,39446,39684
39842,39644,40790,39605,39723,39525,39605,39763
39960,39525,40514,39842,39723,39644,39644,39921
39842,39921,39921,39842,39565,39605,39525,39881
39446,40553,38933,39881,39842,39921,39684,39802
39407,40751,38063,39723,39960,40237,39842,39921
39802,40711,37865,39605,39842,40158,39842,40000
40276,41067,38379,39842,40079,40276,40039,40197
40474,42016,39407,40158,40593,40553,40158,40316
40514,41541,40000,40079,40632,40514,39921,40316
40553,39644,40158,39763,40000,40197,39684,40118
40435,38340,40356,39723,39842,39881,39565,39881
40197,38419,40790,40039,39842,39684,39525,39763
39763,39328,41067,40197,39802,39605,39446,39644
38854,39407,40395,40000,39723,39525,39367,39288
38735,38893,39605,40000,39605,39525,39486,39209
39486,39407,39288,39921,39644,39565,39605,39446
39367,39763,38972,39881,39921,39881,39684,39525
38300,38933,38933,39842,40197,39960,39644,39565
37075,38340,38972,39605,40079,39802,39525,39565
37747,39446,39051,39209,39565,39644,39644,39723
39565,40158,39763,39130,39288,39723,39763,39842
40790,39842,40830,39328,39407,39763,39723,39921
40948,40830,41423,39723,39763,39921,39763,40079
40672,40435,40988,40158,40276,40158,39802,40158
40672,38300,39960,40237,40356,40079,39723,40197
40830,38735,39051,39921,40039,39960,39763,40158
40751,40711,38933,39763,39802,39960,39802,40237
40751,39960,39446,39921,40158,40079,39842,40356
40632,38300,40079,39921,40197,40039,39842,40197
39881,39644,40356,39802,40079,39842,39723,39684
39012,41699,40751,39881,40118,40000,39644,39407
38814,42806,41027,39842,40118,40316,39684,39486
39091,43004,41383,39684,40039,40395,39881,39723
39328,42411,41620,39605,39802,40158,39802,39802
39446,40869,41541,39486,39446,39921,39525,39723
39525,38577,41620,39367,39130,39525,39288,39565
39328,36442,41146,39407,39170,39209,39170,39525
39328,35296,40237,39723,39565,39130,39209,39684
39723,35533,39209,40000,39802,39130,39486,39881
39921,37944,38577,40118,39960,39407,39763,39960
39921,40593,38024,39960,40079,39881,39960,39802
39921,41699,37193,39723,39881,39802,39960,39881
40118,41146,36759,39644,39723,39565,39921,40000
40316,38854,36956,39723,39842,39605,39881,40158
40079,37470,37391,39960,40079,39881,39763,40000
39012,39328,38419,39881,39921,40079,39763,39684
38814,41146,39605,39684,39960,40395,39802,39763
39684,40988,40197,39525,39960,40474,39842,39960
40316,39960,40751,39091,39288,39565,39446,39763
40711,39249,41739,39012,38933,38972,39367,39921
40751,39328,42253,39209,39012,39288,39486,40395
39842,40276,42174,39605,39328,39684,39565,40276
38735,41858,41818,40079,40197,40039,39644,39288
39012,42292,41186,40395,40593,40118,39605,38142
38458,41304,40316,40197,40356,39960,39486,38024
38616,40395,39763,39921,39802,39644,39644,39328
41225,40158,39802,39921,39565,39565,39921,40948
42688,39605,39842,40118,39763,39881,40000,41620
41581,37747,39763,40237,40356,40474,40039,40988
40158,36798,39407,40435,41027,40869,39881,39802
39328,37865,38735,40118,40830,40395,39763,39565
39170,39605,38419,39605,40079,39842,39763,40158
39091,40593,38498,39170,39209,39407,39763,40514
38419,40079,38577,39288,39249,39288,39525,39802
37865,39684,38616,39565,39249,39012,39091,38458
36996,40909,38695,39644,39170,38814,38972,37905
36996,42016,38616,39644,39446,39446,39367,38735
39644,42174,38972,39802,40079,40356,39881,39960
41976,41344,39881,40039,40553,40948,40118,40593
42253,40079,40711,40158,40632,40988,40079,40593
41502,39170,41067,40039,40356,40553,40000,40316
40158,39130,41067,39842,39763,40000,39921,40079
38972,38458,40672,39644,39407,39565,39644,39684
38340,36917,40079,39684,39446,39446,39486,39525
38695,37233,39684,39842,39644,39605,39446,39644
39328,39605,39525,39842,39921,40000,39605,39763
39209,41462,39960,39921,40039,40158,39644,39802
39249,41858,40079,39644,39802,39486,39446,39644
40356,42371,40079,39486,39486,38933,39407,39486
40553,42569,40039,39525,39565,39051,39525,39446
39684,41107,40000,39842,39842,39565,39684,39723
39723,39091,40000,39605,39328,39525,39802,39960
39842,37984,40237,39407,39051,39605,39802,40039
39881,38221,40593,39525,39486,40158,40000,40079
39644,39288,41027,39763,39763,40356,39960,39723
38814,39644,40790,39842,39881,40000,39802,39644
38972,40711,40079,39802,39842,39525,39565,39921
39605,41976,39486,39644,39960,39525,39407,39881
40118,42174,39091,39842,40435,40039,39446,39723
40316,41541,39091,40158,40830,40276,39605,39684
40830,41146,39565,40237,40711,40237,39723,40000
40751,40751,40158,40118,40237,40237,39802,40079
39881,40000,40316,39881,39644,39960,39605,39960
39565,38893,40039,39605,39209,39367,39446,39644
39644,38933,39960,39407,39170,39367,39644,39763
39644,39130,39960,39644,39802,39802,39921,40039
39684,38458,39723,39881,40197,40118,39881,40158
39605,38419,39763,39881,40039,40000,39723,40000
39605,39249,40039,39763,39525,39525,39525,39842
39407,38972,40118,39644,39644,39288,39525,39842
39051,38182,40000,39407,39881,39170,39605,39684
39012,39486,39723,39328,39723,38933,39486,39446
39525,39723,39644,39565,39565,39170,39328,39170
39684,37905,39605,39763,39644,39565,39407,39288
39921,37984,39565,39802,39644,39644,39605,39605
40356,40988,39565,39881,39684,39684,39881,40118
40593,42609,39446,39881,39763,39763,40000,40316
40988,42490,39644,39960,40000,40237,40237,40474
41225,42016,39921,39921,40000,40395,40316,40395
40751,41107,39960,39842,39802,40158,40039,40158
40118,40079,39881,39881,39802,40158,39802,40000
39842,40514,39723,39842,40118,40118,39565,39881
39684,40751,39723,39723,40039,39921,39288,39723
39446,39486,39842,39328,39525,39644,39170,39407
39012,38182,40158,39209,39288,39367,39091,39130
38735,38142,40356,39605,39486,39525,39288,39130
38458,38340,40514,40039,40197,39921,39644,39446
38063,37905,40711,40079,40316,40079,39881,39763
38616,38656,40593,39960,39960,39881,39881,40000
39842,39881,40276,39842,39763,39723,39763,40079
40553,40395,39723,39565,39565,39525,39644,39921
40711,40316,39012,39525,39407,39288,39565,39881
40790,40039,38498,39644,39644,39446,39684,40000
40553,39881,38063,39684,39723,39684,39723,39921
40276,39407,38142,39644,39723,40039,39605,39842
39960,38616,38774,39802,39921,40316,39881,39881
39684,38893,40079,40158,40356,40593,40237,40237
39723,40079,41502,40316,40514,40751,40316,40514
40039,41423,41858,40197,40356,40751,40276,40474
40356,41937,41265,39881,40039,40276,39842,40197
39881,41186,40751,39565,39605,39723,39407,39763
37826,39644,40395,39525,39881,39644,39130,39486
36126,39249,40435,39723,40158,39723,39209,39328
38300,39328,40474,39921,40158,39723,39446,39644
41699,39525,39881,40000,39644,39446,39565,39921
42885,39960,38774,40000,39525,39328,39684,39960
41186,40751,38063,40158,39684,39446,39565,39605
37905,41186,37589,39960,39802,39644,39565,39130
37865,41265,37707,40039,40316,40000,39684,38972
38537,40039,39170,40118,40474,40118,39763,39605
39407,37193,40632,39842,40079,39960,39763,40197
40158,36047,41818,39446,39802,39960,39802,40474
39684,38577,42213,39091,39525,39802,39802,40118
38221,41462,41897,38774,38972,39367,39328,39091
40316,42688,41581,39091,39249,39525,39565,39446
44545,43083,41423,39881,40000,40039,40158,41146
44071,41502,40632,40118,40237,40118,40000,41067
40948,39921,39288,40039,40118,40079,39723,40158
37312,39486,38024,40079,40039,40158,39644,39288
36956,39288,37668,40118,39802,40276,39605,39051
38893,38854,37391,39960,39565,40000,39605,39446
39921,38656,37193,39842,39684,39367,39446,39842
38933,38695,37431,39881,40000,39130,39446,39802
37628,38656,38063,39644,39881,39091,39486,39486
37984,38814,39486,39446,39446,39012,39446,39249
38893,40039,41383,39763,39565,39605,39525,39446
39605,42174,42767,40197,40237,40632,39921,39881
40632,44150,42767,40316,40672,41344,40276,40356
40948,43399,41858,40197,40593,41225,40316,40395
40909,41620,41265,39802,40079,40395,40000,40316
40711,39367,40988,39565,39802,39921,39842,40079
40474,37312,40395,39565,39644,39644,39605,39881
40197,37154,39486,39525,39525,39170,39367,39842
39802,38261,39012,39407,39446,39051,39367,39842
39525,38221,39091,39328,39446,39170,39565,39723
39328,38063,39209,39446,39486,39091,39486,39525
39328,38498,38933,39644,39446,39051,39407,39130
39170,39960,38419,39763,39723,39565,39525,39170
38933,40672,38300,40000,40079,40118,39644,39407
38103,38814,38537,39921,40039,40079,39605,39446
38221,37984,38656,39446,39407,39684,39605,39486
39644,40118,38616,39091,39012,39486,39525,39605
40790,42688,38735,39170,39209,39644,39605,39842
40988,43241,39091,39249,39486,39723,39723,40039
40909,40988,39367,39407,39723,39802,39763,40316
40988,38261,39881,39763,39960,39842,39802,40435
40593,37707,40711,40000,40316,40039,39763,40356
39723,38774,41581,40276,40593,40474,39881,40276
39170,39842,42134,40356,40474,40593,40000,40197
39525,41107,42450,40079,40039,40158,39763,39921
40079,41818,42332,40197,40039,40118,39723,39486
40118,41660,41858,40553,40395,40197,39842,39486
39565,41027,41107,40830,40514,40158,39802,39565
38498,40474,39842,40356,40197,39842,39565,39565
37786,39288,38537,39684,39881,39605,39486,39644
39091,37470,37470,39249,39525,39328,39525,39802
40435,36877,37273,38933,39091,39130,39644,40079
40514,39130,40593,39605,39249,39486,39605,39723
40632,40474,40356,39170,39091,39486,39525,39644
40474,41699,40474,39328,39367,39644,39605,39842
39367,43122,40395,39644,39684,39842,39644,40000
38735,44031,40000,39842,39842,39842,39684,40000
39328,43636,39723,39802,39802,39802,39763,40316
39881,42490,39723,39723,39565,39960,39763,40474
39881,40869,39565,39723,39644,40672,39723,40158
39605,39565,39486,40079,40158,41225,39763,39644
39486,38774,39130,40237,40474,41541,39723,39367
39763,38458,38695,39921,40276,40672,39684,39565
40039,38616,38735,39802,40118,39684,39723,39802
39723,38537,38893,39723,39842,38933,39723,39802
39407,37747,39249,39486,39486,38695,39644,39723
39249,36917,39565,39446,39486,38933,39644,39644
39051,36798,39802,39525,39723,39367,39605,39565
39328,37233,39842,39644,39960,39644,39605,39486
40316,37628,39802,39723,39921,39842,39605,39525
40948,39565,39802,39723,39921,40000,39644,39802
40711,42174,40158,39723,39842,40039,39644,39960
39446,43083,40514,39723,39723,40118,39723,39960
38221,42411,40988,39684,39684,40118,39723,39921
38537,41265,41502,39723,39525,40000,39684,39881
39881,40514,41423,40000,40000,40197,39723,39960
40435,40237,40790,40316,40632,40435,39763,39921
40316,40118,39842,40118,40672,40435,39802,39763
40593,40474,39091,39684,40158,40276,39881,39960
40869,40356,38814,39446,39684,40197,39802,40197
40948,39051,39051,39486,39763,40197,39723,40158
40869,38063,39446,39605,39802,40079,39684,39960
40039,37905,40079,39881,39881,40039,39684,39684
38261,38063,40039,40000,39921,40079,39605,39367
37786,36996,39288,39960,39684,39960,39565,39605
37786,36324,38419,39802,39644,39881,39644,39802
38656,37984,38024,39684,39565,39723,39644,39842
39288,40435,38577,39644,39446,39486,39605,39446
39565,42134,39684,39723,39407,39407,39525,39328
40000,42688,40395,39763,39763,39486,39525,39644
40197,43004,40553,39644,39802,39525,39605,39960
40356,42648,40197,39881,39486,39525,39644,40158
40435,41897,39802,40039,39644,39367,39644,40158
40276,40830,39802,39842,39960,39328,39684,40079
39960,40079,40237,39565,39960,39288,39723,40000
39565,39565,40830,39407,40237,39684,39763,39921
39328,39328,41225,39486,40593,40276,39802,39881
39802,39525,41265,39802,40790,40593,39802,39960
40474,39802,40711,39684,40158,40395,39605,39921
40948,40039,39486,39723,40000,39960,39565,39960
40909,40237,38695,39644,40079,39842,39684,39921
40830,40118,38854,39565,39644,39565,39605,39684
40435,39802,39881,39684,39249,39407,39565,39525
38893,39367,40474,39802,39130,39288,39644,39446
37826,39367,40395,39921,39209,39328,39644,39407
38379,40158,39486,40237,39367,39446,39644,39684
39288,40909,38379,40435,39407,39921,39644,39802
39170,39525,37905,40197,39288,40435,39684,39802
38577,37628,38419,39921,39644,40276,39723,39763
38024,37668,40197,39723,40237,39960,39802,39842
37826,38616,41739,39684,40356,39644,39802,39921
38695,40197,42134,39802,40514,39684,39842,40237
40079,41304,41462,39881,40672,39644,39802,40435
40869,41660,39960,39486,40276,39367,39605,40237
41897,41344,38616,39209,39486,39130,39525,40039
42727,41107,38142,39130,38972,39288,39525,40276
42411,41027,38458,39407,39367,39960,39763,40593
40988,40790,39170,39802,39842,40553,39723,40158
39881,40672,39763,40079,40039,40553,39644,39486
39446,40316,40039,40237,40316,40435,39802,39091
39170,39525,39684,40158,40395,40197,39723,38735
38774,38972,39525,39881,40276,40039,39565,38814
39328,39328,40276,39763,40079,39921,39605,39486
40118,40039,41462,39802,39684,39565,39644,40079
40000,40474,42134,39723,39367,39249,39486,40237
39170,40276,41937,39684,39446,38933,39446,40158
38616,39802,41344,39842,39644,38814,39486,40000
37944,39209,40237,40039,39684,39012,39407,39723
37549,38814,39012,39881,39723,39130,39446,39605
37549,38616,38300,39644,39763,39288,39605,39644
37984,38577,38024,39446,39446,39644,39842,39684
38695,38695,38142,39565,39328,40079,40000,39802
40632,39170,38735,39881,39802,40988,40118,40158
42371,39684,39802,40237,40593,41897,40276,40514
42569,40316,40909,40395,41027,41778,40276,40474
42529,40790,41344,40197,40632,40197,39763,39842
42450,41027,41186,39842,39960,39170,39446,39525
41699,40553,40395,39605,39525,38972,39446,39565
40474,39763,39565,39328,39209,38893,39446,39644
39367,39288,39288,39209,39051,39209,39486,39684
38419,39209,39288,39407,39367,39842,39565,39605
37865,39209,39209,39684,39802,40237,39644,39605
37470,39170,39130,39921,40039,40276,39842,39763
36719,38933,39130,39842,40118,40672,39881,39842
36877,39012,39249,39684,39723,40395,39684,39644
37233,38735,39209,39328,38656,39565,39288,38735
40316,39960,39802,39525,38814,39644,39486,39091
44111,41581,40039,40039,39763,40356,40039,40711
42569,41423,39170,40237,40632,40276,39802,40474
40237,40790,38695,40158,40909,39644,39486,39723
39881,40316,39209,39802,40632,39091,39525,39842
40039,39802,40276,39605,40197,38814,39525,40079
40118,39842,41146,39842,40158,39170,39565,39684
40276,40830,41581,40039,40158,39644,39644,39288
40237,42095,41383,39921,39921,39684,39644,39486
39486,42450,40988,39881,39881,39565,39723,39921
39012,41344,40593,40039,40039,39881,39921,40237
38814,39644,39881,39881,39960,40672,40000,40276
38379,38221,39446,39723,39723,41107,39960,40158
38498,37865,39328,39684,39525,40988,39881,39960
38933,38498,39525,39644,39486,40553,39802,39446
40158,38972,39565,39605,39644,40237,39802,39170
41107,38577,39249,39605,39723,40000,39763,39605
41186,38735,39130,39763,39842,39763,39684,40000
40039,39921,39130,39763,39842,39565,39605,40237
39367,40237,39328,39525,39565,39407,39525,40435
39723,40000,39723,39367,39288,39051,39367,39921
40118,40237,40079,39486,39684,39170,39209,38893
40672,41265,40395,39802,40395,39525,39328,38933
40988,40909,40316,40118,40790,39881,39644,39763
40514,40474,40158,40039,40276,39763,39723,40158
38854,40316,40079,39921,39525,39684,39684,40197
36719,39446,39960,39763,39209,39723,39684,40000
37233,38458,39960,39605,39170,39802,39881,39960
39565,37786,40000,39565,39367,40158,40039,40079
40356,36640,39763,39723,39684,40316,39921,39921
39881,36166,39446,39881,39842,40276,39723,39367
39446,38024,39249,39881,39960,39565,39407,38933
39565,41462,39525,39842,40197,39012,39249,39170
39960,42767,39763,39881,40276,39051,39407,39684
40316,41581,39921,39802,40039,39249,39565,40039
40395,40632,39921,39644,39684,39407,39605,40039
40158,41462,39802,39486,39486,39565,39644,40000
39921,42411,39842,39525,39644,39723,39723,39921
39763,41581,40000,39960,40197,40000,39881,40079
39723,39525,40000,40197,40553,40237,39802,40118
39723,38300,39960,40079,40237,40039,39723,39921
39723,38182,39921,39723,39842,39842,39723,39802
39763,38972,40039,39763,39723,40000,39763,39802
39763,40039,40079,39921,39960,40276,39842,39881
39802,40514,40079,39881,39960,40316,39881,39921
39802,40672,40237,39960,40118,40356,39921,40039
39842,40869,40118,40079,40039,40039,39723,39881
39684,40593,39960,39802,39565,39605,39446,39565
39605,40039,39763,39565,39486,39367,39367,39565
39525,39367,39644,39565,39367,39565,39446,39684
39486,38340,39525,39565,39170,39684,39565,39684
39446,37470,39486,39644,39328,39525,39684,39723
39407,37470,39565,39763,39684,39565,39605,39684
39763,38814,39763,39921,40039,39802,39723,39763
40079,40158,39842,40000,40118,39881,39763,39960
40118,39881,39684,39881,40039,39802,39723,39881
39921,40514,39446,39525,40197,39525,39644,39684
39763,40869,39328,39288,40316,39367,39605,39723
39684,39209,39446,39328,40158,39170,39684,39842
39881,40197,39644,39723,40118,38182,39881,40079
39525,43004,39881,39842,39842,37233,39802,40158
38933,42332,40039,39842,39209,37075,39605,40000
39051,40593,40118,39921,39051,38340,39605,39960
39921,40435,40158,39842,39051,39960,39565,40039
40356,40751,40118,39802,39051,40988,39486,39842
40395,40593,40158,39881,39288,41818,39486,39763
40316,40079,40276,39921,39605,42292,39644,39684
39486,39644,40276,39960,40000,41897,39763,39723
39525,39407,40079,39921,40237,41304,39881,39802
40079,38854,39644,39881,40514,41344,39802,39802
40356,37747,39525,39881,40751,41225,39802,39763
40118,37470,39644,39802,40751,41107,39881,39842
40039,37786,40039,39565,40356,40632,39921,39921
40197,38616,40276,39407,40079,39960,39881,39842
38972,39446,40316,39525,40039,38893,39723,39446
37470,40237,40672,39802,40158,38103,39565,39249
38024,40711,40553,39802,39881,37193,39446,39605
39367,40711,40079,39605,39130,37035,39407,39842
40118,40593,39842,39525,38695,38142,39486,40079
40553,40395,39842,39723,38933,39921,39565,40197
40474,40158,39605,39802,38814,41265,39684,40079
40000,39842,39328,40000,39170,41225,39723,40039
39605,39605,39051,40197,39960,40435,39763,39960
39288,40079,38972,40158,40553,39881,39802,39723
39170,40356,38774,39960,40711,39842,39684,39763
39565,39881,38735,39842,40711,40237,39723,39763
39802,39644,38814,39605,40474,40435,39723,39723
39565,39367,39170,39605,40118,40395,39605,39565
38893,39051,39565,39605,39763,40395,39605,39525
39486,39130,39921,39605,39605,40553,39723,39881
40909,39525,40118,39802,39367,40711,39921,40118
41383,39842,40553,39802,38972,40672,39802,40000
40830,39842,40830,39644,38774,40474,39644,39723
39605,39960,40869,39367,39249,40158,39565,39605
39367,40711,40830,39644,40118,40039,39763,39960
39842,41344,40593,40158,40711,40039,39881,40316
39486,40988,39763,40276,40593,40000,39881,40237
38498,40276,39170,39921,40079,39723,39802,39842
38063,39921,39209,39684,39921,39723,39605,39605
38419,39960,39565,39525,39644,39525,39525,39367
38933,40039,40000,39565,39407,39012,39525,39407
40632,40237,40276,39684,39525,38537,39684,39842
42174,40356,40118,39842,39802,38735,39684,40158
40790,40079,39881,39881,40000,39288,39644,40039
39486,39525,40079,39763,40039,39842,39684,39842
39446,39367,40988,39763,40039,40197,39723,39842
38933,39565,41304,39881,39921,40276,39684,39802
39209,39684,41107,39723,39763,40079,39605,39881
40553,39842,40474,39684,39644,39842,39605,40237
40553,39763,38972,39842,39644,39763,39684,40316
39446,39209,37786,39960,39881,39763,39644,39723
38774,39170,37510,40197,40356,39881,39525,38933
39288,39763,37786,40158,40316,39763,39644,39051
40632,40316,38340,39842,40039,39644,39763,39881
41620,40514,39012,39684,39842,39644,39723,40395
41778,40435,39170,39763,40000,39644,39723,40356
40948,40039,39367,39565,39842,39407,39684,39960
39684,39565,40000,39565,39565,39288,39525,39723
39525,39605,40948,39763,39565,39446,39525,39921
40158,40197,41858,39881,39881,40000,39802,40237
39881,40830,41778,39960,40079,40514,40000,40474
39170,41186,41186,39921,40000,40514,40079,40316
38695,41146,40830,39842,39763,40158,39802,39960
38893,40593,40632,39644,39446,39842,39605,39802
39091,39723,40435,39367,39091,39605,39565,40039
38458,39367,40276,39249,38814,39446,39367,39842
37786,39051,39763,39407,39012,39407,39170,38458
37747,38498,39486,39960,39723,39565,39209,37668
38340,38458,39684,40079,40118,39802,39486,38458
39328,39051,39842,39802,40079,39881,39960,39446
41858,39881,39723,39802,40158,39921,40118,40276
43439,40079,39328,40000,40356,39684,39960,40751
42332,39960,38616,39921,40395,39644,39881,40711
41383,40118,38221,39684,40000,39407,39723,40593
41423,40435,38142,39763,39842,39565,39644,40474
40435,40514,38261,39960,40474,39921,39605,40158
39723,40356,38854,40039,41186,40079,39605,40237
39130,39881,39525,39960,40593,40118,39684,40711
36996,39446,39960,39921,39565,39960,39684,40553
36522,39407,40276,39644,39288,39723,39723,40276
38774,39525,40435,39565,39091,39605,39684,40079
39881,39644,40632,39684,39130,39723,39644,39723
39328,39684,40672,39802,39407,39881,39605,39170
39881,39881,40395,39723,39446,40039,39644,38774
40909,40118,40158,39644,39486,40356,39565,38814
40000,40039,39921,39605,39644,40237,39525,38735
38182,39802,39605,39644,39684,39684,39367,38340
38498,39684,39565,39881,39881,39486,39407,38735
39881,39723,39644,40000,40276,39763,39684,39644
40395,40000,39802,39881,40593,39763,39802,40197
41462,40435,39881,39723,40593,39367,39921,40632
42767,40830,39921,39960,40672,39525,40118,41107
41897,40909,40000,40158,40790,39921,40356,41186
40237,40553,40039,40118,40395,39723,40039,41225
39525,39921,39921,39960,40197,39605,39644,41146
39446,39091,39525,39802,40039,39565,39288,40711
38419,38419,39288,39644,39684,39407,39209,39802
36601,38300,39407,39525,39367,39684,39288,39328
35059,38577,39684,39328,39288,40356,39525,39091
36284,39486,40158,39249,39446,40593,39565,38616
39170,41027,41107,39723,40039,41067,39763,37944
41660,41858,41383,40118,40395,41344,39881,37984
42371,41462,41146,40039,40079,40474,39763,38933
41818,40751,40790,39802,39644,40276,39723,40039
41660,40237,40395,39763,39605,40079,39763,40632
41699,39605,39723,39446,39367,39525,39684,40197
41660,38933,38893,39288,39130,39209,39446,39684
40909,38537,38458,39565,39446,39209,39565,39921
38774,38458,38419,40000,40079,39525,39644,39881
37075,39209,38616,40118,40158,39249,39684,39644
36680,40474,38933,40000,39960,38814,39644,39881
37747,40632,39091,39684,39644,38695,39644,40118
39446,40039,39486,39367,39170,39012,39605,39960
40711,40118,40197,39367,39209,39723,39763,39881
40356,40553,40869,39802,39486,40474,39881,39921
38735,40197,41344,39842,39802,40553,39881,39763
38972,39565,41462,39684,40079,40395,39763,39684
39328,40276,40988,39723,40474,40514,39684,39525
38103,40158,40197,39763,41146,40711,39605,39367
38182,38933,39644,39763,41502,40395,39565,39328
41699,38735,39209,39605,40672,39723,39407,39525
43201,39881,39288,39644,39684,39486,39525,39763
42332,40988,39644,39605,39288,39051,39723,40237
42688,41660,39802,39960,39170,38142,39881,40593
41541,41067,39763,40079,39012,38498,39763,40395
38537,39802,39565,39921,38972,39012,39565,39684
37470,39051,39684,39723,38695,38261,39407,39130
39605,38814,39921,39802,38854,38458,39605,39446
39921,38498,39921,39881,39367,40000,39763,39723
38656,38340,39605,39842,39921,41027,39723,39723
37865,38221,39328,39763,40237,41146,39605,39367
40751,40672,40593,39644,39684,40711,39842,40118
40356,39881,40276,39881,39881,40435,39723,40000
39525,38972,39763,40000,40197,39921,39565,39723
38814,38498,39644,39881,40237,39486,39407,39367
39209,38893,40000,39684,39921,39328,39486,39486
40474,39486,40395,39684,39605,39565,39644,39960
41265,39802,40356,39842,39842,40079,39723,40197
41027,39842,40079,39723,39921,40276,39723,40158
40356,39842,40079,39842,40197,40395,39723,40197
39605,39763,39921,40079,40514,40316,39763,40158
38933,39644,39091,39960,40435,40197,39763,39921
39091,39367,38024,39684,40158,39921,39605,39486
39684,39367,37826,39605,39723,39605,39525,39328
38577,40395,38695,39842,39367,39486,39605,39486
38103,41541,39684,39723,39328,39565,39723,39723
39763,40593,40395,39565,39684,39802,39881,39960
40988,39446,40830,39842,40000,40000,39921,39960
40672,39328,40672,39960,39921,40039,39842,39763
39328,39367,40118,39842,39921,39960,39723,39644
38656,39407,39802,39723,39802,39763,39605,39605
39051,40197,40000,39525,39367,39486,39407,39644
39407,40988,40514,39684,39407,39525,39367,39763
39605,40790,40751,39921,39723,39842,39565,39881
39960,40395,40435,40000,40158,40158,39842,40000
40079,40118,40039,39684,40000,40079,39723,39802
39802,39446,40158,39486,39881,39960,39605,39723
39723,38933,40158,39525,39802,40079,39723,39842
40118,39051,40474,39684,39565,39881,39763,39723
40474,39130,40276,39881,39565,39802,39921,39763
40158,39565,39723,40118,39802,39921,39921,40316
39051,40395,39012,40039,39605,39802,39842,40632
39288,41027,38537,39842,38814,39525,39605,39960
40435,41265,38933,39881,38854,39446,39486,39288
40948,41067,39525,39921,39367,39565,39565,39486
40435,40276,39723,39723,39842,39644,39605,39802
40118,39565,39209,39605,40316,39684,39525,39842
40356,39525,38854,39684,40830,39209,39644,39763
39763,39842,39249,39842,41225,38854,39684,39763
38577,40356,39763,39960,41265,39328,39723,39802
38458,41146,40316,39842,40751,40118,39723,39881
39209,41304,40474,39723,40039,40632,39802,40000
38735,40790,40435,39763,39525,40869,39723,39723
38142,39723,40118,39763,39407,40948,39644,39288
38774,38498,39921,39881,39328,40514,39644,39170
39328,37470,40000,40000,39367,39881,39605,39684
39486,36798,40000,39842,39407,39288,39763,40672
40435,37786,39723,39565,39328,38933,39802,41462
41660,40237,39763,39407,39288,39130,39605,40830
41778,41858,40118,39842,39881,39565,39446,38656
40197,41304,40276,40118,40197,39763,39525,37944
38933,39170,39960,40000,40000,39407,39605,38774
39486,37589,39525,39842,39842,39091,39684,39842
40711,38854,39288,39684,39842,39288,39723,40316
40435,41858,39446,39723,40079,39723,39802,40395
40039,42885,39723,39723,40276,40118,39723,40237
39605,42609,39723,39684,40197,40593,39684,39960
39446,42292,39921,39644,40079,40672,39842,39802
39921,40395,40079,39684,39921,40316,39763,39802
39684,37035,39763,39684,39723,39288,39525,39684
38972,35336,39407,39921,39881,39012,39486,39684
38419,37075,39249,39921,39802,39051,39486,39644
38142,39802,39249,39763,39525,39486,39605,39644
38103,40593,39446,39605,39012,39921,39644,39486
38774,39921,39684,39605,38814,40118,39684,39525
39842,39367,39960,39644,39486,40197,39763,39684
40395,38972,40039,39802,40395,40356,39723,39842
40514,39288,39960,39881,40593,40197,39605,39881
40474,39723,39802,39723,40316,39802,39486,39842
40395,40039,40000,39723,40316,39881,39565,39960
40276,40237,40237,39802,40237,40079,39763,39960
40118,40632,40158,39842,39842,40079,39802,39960
40079,40909,39921,39684,39486,39921,39684,39960
40039,40435,39763,39605,39367,39802,39644,40000
39763,39644,39723,39684,39525,39723,39802,40079
39684,39288,40039,40079,40118,40000,40000,40158
39407,39525,40276,40395,40553,40237,40039,40118
39288,39802,40316,40316,40474,40158,39921,39723
39446,39763,40237,39802,39763,39605,39644,39407
39644,39407,39881,39565,39446,39367,39525,39525
39644,38972,39407,39565,40197,39763,39525,39802
39367,38656,39091,39644,41541,40435,39486,39723
39091,38735,39288,39763,42174,40593,39486,39605
39249,39407,39802,39723,41660,40276,39407,39288
38774,40039,40079,39723,40237,39802,39328,39012
37984,39842,40000,39565,38577,39486,39170,38656
40197,40751,40197,39723,37984,39486,39684,39486
44348,42569,40869,40237,38182,39130,40435,41581
43241,41937,40553,40079,38024,37944,40158,41304
41225,40118,39881,39723,37707,37944,39565,40197
39842,38972,39525,39565,37905,38893,39446,39605
37193,38814,39486,39525,38537,39802,39605,39565
35850,39525,39802,39763,39960,40790,39921,39881
37984,40118,40079,39842,41146,41383,40079,40118
40316,40158,40158,39723,41660,41581,40039,39960
40474,39921,40000,39842,41897,41225,39921,39723
39525,39802,39842,40000,41541,40435,39605,39565
38103,39684,39723,39802,40869,39921,39367,39249
38498,39605,39565,39605,39763,39802,39328,39288
40356,39960,39446,39525,39091,40158,39446,39723
41225,40830,40276,39605,39486,40395,39684,40000
41581,41581,41304,39525,40039,39802,39723,39842
41304,41344,41423,39486,39960,38577,39644,39921
40395,40276,41107,39565,39170,37510,39605,39842
39723,38933,40197,39565,38340,37391,39486,39684
39802,38142,38814,39486,37786,38142,39446,39684
40158,38616,37826,39605,37747,38972,39525,39921
39921,39525,37905,39842,38735,39644,39605,39842
39130,40079,38814,39881,40197,40118,39684,39644
37865,40118,39446,40039,41027,40672,39684,39565
38142,39921,40000,40079,40830,40830,39802,39763
39249,39723,39960,40197,40514,41027,39842,40079
40158,39684,39525,40079,40316,41186,39881,40276
40553,39684,39407,39921,40158,41027,39723,40079
40514,39684,39960,39446,39723,40474,39605,39842
40435,40158,40593,39367,39328,39842,39684,39881
40316,40553,41067,39684,39723,39684,39763,39960
40435,40711,40988,39881,40079,39723,39802,40000
40593,40948,40395,40039,40118,39288,39763,40237
40237,40988,39723,39842,39881,38972,39684,40395
39407,40237,39407,39723,39684,39209,39605,40356
38063,39723,39763,39763,39723,39802,39605,39605
38419,40276,40474,39842,40000,40237,39644,39091
39684,40237,40632,39921,39960,40790,39565,39012
40632,39525,40237,39684,39644,40790,39525,39328
40356,39209,39684,39723,39525,40197,39565,39605
38221,39407,39288,39763,39763,39921,39763,39605
38103,39644,38854,39684,40079,39842,39802,39763
40395,39921,38616,39802,40514,39446,39763,40316
42450,40118,38933,39723,40276,38735,39723,40672
43043,40316,39407,39446,39802,37431,39605,40632
41818,40474,39802,39644,39881,37233,39565,40158
40356,40158,40276,40000,40276,37984,39407,39525
38774,39723,40869,40356,40553,39367,39486,39091
37589,40356,41383,40316,40395,40474,39565,39209
38616,41146,41265,40118,40197,40988,39644,39486
40553,40316,40553,39723,39802,41423,39802,39763
40158,39051,39763,39565,39605,41423,40039,40000
37075,38221,39367,39446,39367,40948,40118,40039
36047,37905,39249,39249,39051,40632,39921,39802
38774,38537,39288,39407,39130,41225,39802,40039
40237,38458,39288,39802,39328,42292,39802,40000
39763,38063,38616,39960,39486,41699,39723,39763
39486,39209,38300,39763,40039,39960,39486,39407
39605,40869,39170,39446,40079,38379,39328,39130
39960,41897,40158,39446,40000,37589,39407,39446
40988,41541,40790,39486,39921,37431,39644,40118
41897,39921,41265,39605,39921,37826,39525,40316
40356,39565,41146,39921,40118,38814,39486,39881
38458,40632,40514,40079,40237,39723,39565,39091
38577,41225,39684,40000,40039,40000,39684,39091
39842,40711,38933,39921,39802,40079,39842,39684
40079,39684,38458,40079,39842,40356,39763,40039
39328,38854,38063,39960,39605,40276,39644,39802
38340,38537,38024,39525,39605,40039,39644,39605
38577,38774,39012,39525,39802,40039,39684,39684
39209,39367,40672,39605,39763,39960,39723,39763
39288,40079,41304,39605,39446,39842,39763,40395
39367,40158,41304,39684,39209,39684,39723,40632
40039,39960,40948,39802,39328,39723,39525,39802
41107,39921,40118,39644,39446,39921,39644,39091
41344,39921,39249,39446,39367,40118,39881,39486
40830,39644,38972,39525,39486,40039,39763,39802
39960,38656,39446,39802,39842,40000,39328,39486
38972,37747,39960,39960,40197,40237,39446,39486
38577,38577,39960,39960,40197,40316,39802,39842
39723,40672,39921,39881,40118,40395,40237,40276
40909,41818,39842,40039,40316,40553,40553,40751
40395,41462,39486,40118,40237,40079,40000,40474
38972,40672,39170,40000,40118,39407,39367,39960
38616,40316,39367,39842,39763,39012,39249,39605
39605,39881,39723,39763,39723,39130,39486,39723
40435,38933,39723,39763,39763,39446,39605,39723
40711,38340,39407,39763,39644,39763,39644,39605
39763,38300,39170,39684,39723,39960,39723,39565
39486,39091,39012,39684,40000,39960,39723,39446
40197,40632,39249,39684,40000,40000,39565,39446
40553,41937,39881,39763,39960,39802,39565,39605
40553,42253,40751,39921,40118,39802,39684,40197
40079,41462,41383,40158,40000,39644,39763,40790
39446,40316,41265,39881,39446,39130,39684,40553
39209,38458,40909,39644,39407,38498,39644,39684
39684,36442,40356,39644,39446,38537,39565,39525
39051,36522,39565,39605,39684,39644,39605,39644
37628,38419,39288,39802,40356,40711,39644,39170
37905,40711,39842,40039,41027,40948,39802,39130
40514,41976,40632,40158,41027,40672,39921,39723
42174,42213,40948,39960,40435,40435,39960,40316
42490,41541,40909,39842,40079,40237,39842,40593
41858,40711,40435,39763,39842,39960,39763,40514
40118,39802,39723,39881,39881,39802,39644,40079
38419,39130,39130,39881,39921,39644,39565,39723
37984,38854,38814,39802,39565,39525,39486,39486
38142,38854,38933,39723,39288,39763,39565,39684
39249,39249,39170,39763,39130,40039,39723,40039
40553,40039,39328,39723,39328,39960,39802,40118
40711,40672,39486,39605,39407,39723,39723,40039
40435,40790,39605,39644,39525,39644,39723,40000
39921,40474,39921,39802,39842,39802,39723,39960
39209,39921,40276,39763,40276,39960,39723,39881
38735,39446,40553,39802,40632,39881,39605,39486
38182,38735,40435,39763,40474,39723,39367,38854
37747,38063,40039,39367,39802,39525,39407,38735
38458,38300,39960,39288,39407,39486,39565,39209
38814,39012,40000,39486,39367,39644,39802,39605
38854,39644,39921,39723,39525,39881,39763,39921
40118,40197,39802,39723,39565,39881,39802,40197
41344,40276,39525,39684,39684,39763,39763,40395
41581,40079,39367,39684,39644,39446,39525,40316
40948,40158,39367,39644,39486,39328,39288,39605
40790,40672,39525,39684,39565,39525,39446,39565
41067,41067,39960,39881,39960,39881,39842,39960
40593,41344,40435,40118,40237,40237,39960,40158
39209,41265,40593,40237,40039,40118,39881,40000
37589,40593,40395,40000,39960,39644,39644,39565
37747,40000,39763,39763,39960,39723,39605,39486
38933,39763,39170,39763,39921,40316,39881,39921
40079,39842,38933,39644,39960,40672,40000,40197
40237,39723,38893,39644,39842,40356,39802,39763
39288,39684,39209,39644,39921,39881,39525,39486
38933,39565,39842,39921,40514,39921,39407,39684
39328,39486,40197,40079,40711,40079,39486,39921
39644,39565,40000,39842,40276,40276,39565,39881
40197,39684,39802,39486,39486,40118,39684,39881
40553,39763,40158,39486,39684,40158,39763,40079
40790,39921,40751,39763,40316,39960,40000,40118
41146,40158,40830,39881,40474,40039,40118,40158
41778,40118,40395,40000,39842,39921,39921,39960
41699,40316,40158,39960,39051,38774,39486,39486
39881,40672,39881,39842,39565,38103,39288,39091
37154,40158,39407,39723,40830,38300,39328,38933
36522,39842,39051,39644,40869,38182,39367,39367
38261,40237,39051,39486,39763,38221,39486,39881
39407,40830,39288,39446,38774,38774,39446,40039
39802,41027,39605,39565,38379,39723,39605,39921
39921,39605,39881,39802,38616,40593,39842,40000
40197,38854,40356,39921,39091,41027,39960,40118
40316,39170,40869,40000,39565,41304,39960,40079
40197,39288,41146,39842,39763,41660,39960,40039
39921,39367,40988,39684,39881,41423,39802,39921
39605,39960,40553,39842,39960,41027,39644,39842
39407,39525,39802,39881,40316,40751,39644,39802
39565,38893,39249,39802,40869,40514,39684,39802
39881,38656,38933,39763,41027,40118,39684,39921
40316,38933,39012,39842,40356,39130,39525,39723
40632,39763,39170,39723,39288,37865,39407,39644
40514,40514,39407,39565,38735,37510,39486,39802
40158,40988,39565,39446,38814,37984,39605,39960
39328,40988,39525,39407,39209,38656,39644,39763
38933,40356,39644,39605,39486,39328,39763,39763
39130,39881,39723,39802,39842,40039,39723,39960
39486,39960,39802,39921,40000,40474,39881,40118
39763,39644,39842,40039,40237,40790,40158,40237
39763,38972,40039,39921,40316,40869,40000,39960
39525,38537,40039,39842,40356,40909,39644,39605
39051,38616,39763,39684,40039,41027,39446,39249
39012,39367,39921,39802,39960,40869,39486,39367
39565,40316,40237,40000,40000,40356,39565,39525
40118,40909,40435,39881,39486,39684,39644,39802
40158,40474,40474,39525,39091,39170,39684,39960
39644,39644,40079,39328,38972,39091,39644,39921
38577,39209,39565,39407,39288,39170,39605,39802
37470,38577,39328,39367,39209,39209,39486,39446
39288,39209,39960,39842,39921,39802,39684,39605
44466,41265,41383,40711,41146,40514,40158,40869
43043,41304,41858,40672,41186,40356,39881,40553
38261,40158,41146,40079,40474,39328,39525,39486
37786,39486,40039,39723,39842,38814,39565,39605
40079,39407,39486,39486,39684,39130,39763,40237
41027,39644,39130,39288,39407,39723,39644,39802
39486,39723,38537,39407,39130,40395,39525,38933
37549,39723,38182,39644,38893,41107,39684,38933
38379,40000,38221,39842,39130,41344,39842,39644
40316,40356,38854,40000,39644,40514,39842,40276
40514,40197,39328,39921,39960,39328,39684,40079
39921,39684,39130,39565,40276,38814,39684,39842
39763,39170,38735,39605,40751,39012,39763,39881
39605,39091,38933,39802,40869,39249,39723,39881
39209,39446,39960,39723,40514,39328,39525,39684
38972,40197,41107,39723,40000,39525,39525,39644
39249,40909,41818,39960,39723,39763,39605,40079
39565,41027,41660,40039,39565,39763,39684,40356
39842,40514,41027,39921,39525,39842,39565,39802
40316,40237,40356,39881,39802,40197,39644,39209
40672,40237,39842,39763,39960,40118,39684,39565
41107,40356,39684,39684,39802,39684,39684,39921
38893,37747,39130,39763,40672,40553,39605,39486
39170,38063,39209,39684,40909,40000,39644,39921
37431,39881,39446,39644,40553,40435,39565,40079
36166,42213,39842,39565,39723,40711,39565,39684
38537,43399,40197,39486,38893,40869,39684,39644
41541,43201,40276,39565,38419,40869,39723,40000
42569,41937,40276,39605,38261,40474,39763,40276
41976,40474,40711,39802,39091,39921,39921,40435
41067,39170,40948,40000,40435,39407,40079,40672
41107,38577,40514,40039,40988,39288,39960,40830
40869,37589,39921,39723,40474,38774,39723,40356
40276,35257,39525,39605,39802,37549,39407,39170
39486,34743,39130,39723,39763,37193,39288,38458
39051,37114,38933,39921,39960,37628,39288,38893
39249,40039,39170,40039,39921,37905,39446,39525
39644,42332,39605,39960,39605,38814,39644,40039
39921,43122,39960,39960,39605,40356,39802,40276
39802,42529,40039,39684,39367,41581,39763,40158
39446,41344,39881,39486,39288,42095,39842,39960
39091,40553,39881,39684,39446,42134,39763,39763
39091,40276,40079,39802,39525,41937,39723,39684
39328,39644,40039,39723,39684,41699,39763,39802
39486,39012,39723,39684,39960,41462,39842,39921
39605,39051,39565,39763,40079,41225,39881,39921
39684,39446,39644,39881,40000,41186,39881,39960
39723,39367,39763,39842,39802,40869,39802,40000
39644,38933,39684,39684,39684,40158,39684,39921
39644,38814,39763,39605,39842,39249,39644,39802
39763,39130,40039,39881,40237,38695,39684,39881
39921,39644,40316,39960,40395,38458,39684,40000
39881,39921,40316,39881,40158,38300,39525,39802
39723,40237,40197,39605,39684,38735,39446,39486
39605,40869,39921,39525,39525,39763,39486,39525
39644,41067,39802,39842,40039,40751,39605,39684
39605,40435,39644,39921,40118,40830,39723,39802
39723,39446,39486,39960,40079,40751,39763,39881
39763,38933,39328,40039,39960,40435,39684,39802
38854,38656,39012,39763,39723,39881,39486,39446
38498,38933,39091,39723,39605,39486,39525,39209
42292,41027,40039,40197,40237,39407,40158,40711
43043,41581,40356,40316,40316,39209,40197,41146
40790,41107,40158,40000,40079,39328,39802,40158
39209,40276,40000,39763,39842,39802,39525,39525
37905,39763,39921,39644,40000,40237,39565,39367
37431,39605,40000,39644,40711,40474,39605,39486
38103,39881,40039,39605,40948,40158,39605,39605
38854,40197,40079,39486,40197,39763,39525,39565
40790,40158,39881,39446,39209,39644,39565,39763
40948,39921,39644,39644,39012,39960,39684,39881
40830,39763,39565,39921,39249,40474,39763,39881
40553,39605,39288,39960,39249,40395,39723,39921
39921,39842,39288,39605,38972,39802,39684,39921
39525,40039,39881,39644,39249,39842,39802,39960
39605,40118,40751,39842,39525,40000,39802,39960
39921,40276,41067,39763,39367,39723,39723,39881
39644,39723,40711,39763,39565,39446,39644,39842
39328,39170,40079,39842,40000,39249,39605,39684
39249,39565,39486,39881,40395,39288,39565,39723
39684,40395,39407,39960,40632,39407,39605,39881
40158,41067,40000,40118,40711,39288,39763,40079
40435,40869,40356,40237,40435,39328,39684,40197
40237,40158,40000,40000,39842,39407,39486,40039
39605,39328,39367,39763,39091,39486,39328,39605
39051,38814,38735,39605,38774,39644,39328,39249
38893,38616,38340,39407,38933,39605,39605,39130
39091,38854,38774,39367,38972,39802,39881,39486
39367,39367,39684,39565,38972,40158,40000,39763
39684,39802,40474,39605,39525,40237,39921,39763
40039,40197,40909,39763,40751,40553,39881,39921
40197,40276,40751,40237,42016,41186,39881,40158
40197,40000,40039,40276,42213,41146,39763,40118
40000,39684,39367,40079,41739,40356,39644,40039
39881,39605,39249,39881,41027,39486,39565,39921
39802,39802,39367,39723,40118,38854,39446,39881
39763,40000,39802,39763,39407,38893,39525,39921
39802,40158,40197,39921,38893,39486,39644,39921
39684,40237,40474,39921,38498,40000,39644,39684
39446,40118,40474,39763,38103,40039,39605,39684
39446,39960,40039,39525,37905,39723,39644,39881
39486,39881,39723,39644,38221,39565,39763,39960
39486,39921,39802,39802,38814,39881,39842,40000
39328,40158,40237,40039,39565,40118,39921,40079
39328,40395,40751,40039,40711,40197,39802,39960
39605,40276,40909,39723,41304,40039,39763,39921
40079,40000,40869,39644,41265,40079,39802,39763
40276,39446,40514,39684,41107,40079,39565,39446
40316,39051,39842,39842,40790,40039,39367,38972
40830,39328,38933,39842,40197,39763,39288,38814
41581,39605,38063,39644,39644,39644,39486,39367
40909,39842,37944,39644,39446,39960,39723,40039
39446,40316,38577,39684,39446,40237,39960,40356
38419,40356,39209,39605,39565,40276,40039,40276
38854,40118,39684,39565,39525,40079,39921,40158
39249,40039,39960,39842,39723,39842,39763,40000
39486,39644,39921,40039,40039,39723,39684,40079
39209,39091,39605,39960,40000,39605,39723,40237
38735,38814,39684,39802,39842,39288,39723,40276
39091,39367,40711,39525,39288,38814,39684,39842
39881,40237,41699,39644,39012,38972,39684,39051
40474,40869,42095,39842,39328,40000,39723,38972
41067,41067,42134,39881,39723,40751,39684,39644
40988,40711,41423,39802,40276,40672,39565,40395
40356,40276,40395,39763,40474,40356,39446,40435
39684,40039,39367,39644,40395,40118,39446,39446
39763,40039,38774,39605,40237,40158,39565,39367
40435,40000,38537,39842,40316,40276,39842,40553
40237,39842,38340,40000,40079,40079,39881,40909
38854,39407,38340,40158,39960,40000,39921,39842
38340,38695,38221,40197,39842,39921,39605,38537
38656,38379,38182,40197,39644,39802,39446,38142
38300,38340,38142,39881,39565,39644,39525,39012
38458,38419,38300,39446,39446,39288,39644,40079
40356,39051,39130,39130,39091,38735,39605,40632
42174,40039,40435,39249,39051,38735,39525,40869
42648,40830,41265,39605,39486,38854,39644,40711
41660,40869,41186,39802,40039,39249,39802,40395
41265,40751,40909,39921,40356,39644,39842,40197
42055,40948,40751,40158,40435,40079,39960,40356
41778,40988,40632,40039,40118,40039,39842,40197
39881,40356,40435,39763,39486,39763,39684,39605
37352,39407,40118,39644,39288,39881,39565,38933
33518,38695,39763,39723,39565,39960,39486,38379
32490,38893,39446,39802,40079,39960,39605,38498
36917,39605,39209,39763,40039,39960,39565,38933
40711,39763,38814,39684,39605,39921,39446,39249
42648,39565,38537,39525,39249,39842,39486,39525
43043,39684,38340,39525,39288,40079,39723,40237
42134,39881,38261,39802,40000,40632,39960,40751
40316,39842,38616,40000,40988,40711,39960,40711
39881,39842,39446,40079,41186,40276,39842,40553
39170,39921,40039,39960,40751,39842,39644,40197
37984,39960,40593,40039,40237,39407,39407,39723
38498,40197,41107,39842,39881,39130,39407,39684
39802,40316,41265,39644,39486,38814,39565,39881
40316,40158,40909,39486,39012,38656,39525,39723
40474,39842,40593,39407,38695,38854,39446,39328
40553,39684,40316,39407,38340,39249,39605,39249
40237,39486,40158,39921,38893,39802,39802,39684
39763,39525,39802,40237,40079,39565,39802,40000
39644,39763,39407,40000,40435,38182,39723,40000
39288,39684,39249,39644,40039,38261,39644,39802
38972,39723,39407,39723,39921,39407,39723,39802
39012,40039,39684,39881,40118,39921,39881,40000
39249,40276,39684,39763,40000,40237,39763,40000
39446,40395,39644,39763,40000,40909,39684,39842
39565,40514,39763,39842,40039,41344,39644,39723
39565,40474,40000,39802,40079,41502,39763,39723
39249,40118,40237,39921,40395,41383,39842,39684
38577,39723,40197,39763,40316,40948,39605,39605
38616,39605,40197,39565,39763,40514,39446,39525
39249,39763,40197,39525,39367,40632,39565,39605
40118,40079,40079,39605,39209,41146,39763,39684
40593,40316,39881,39486,39091,40593,39763,39644
40948,40711,39763,39684,39525,39486,39723,39684
41620,41265,39802,40118,39960,38972,39763,40079
41897,41146,39960,40118,39960,38854,39802,40237
41660,40632,40197,39921,39723,38577,39644,40079
41778,40593,40435,39842,39684,38142,39605,40118
41778,41344,40632,40158,40079,38537,39763,40553
40079,41265,40632,40316,40514,39525,39881,40593
37707,39525,40316,40000,40790,40237,39802,40118
37589,37944,39881,39684,40790,40197,39763,40158
38695,38063,39842,39644,40988,39605,39763,40474
38261,38814,39921,39763,41699,39763,39802,39881
37193,39288,39802,40000,41620,40356,39802,38972
37431,38695,39565,39684,39960,40316,39723,39130
39288,37312,39367,39486,38103,40356,39605,39763
40158,36363,39209,39486,37391,40672,39407,39565
40435,37431,39051,39367,37549,40830,39328,38893
40632,38854,38735,39367,38103,40514,39407,38854
39763,40118,38854,39249,38340,39960,39565,38814
40237,41502,39367,39249,38498,39723,39763,39091
41067,42253,40158,39565,39130,40079,39842,40000
41423,42569,40830,40118,40039,40514,40000,40909
41423,41858,40948,40474,40751,40711,40079,41344
40869,40039,40474,40356,41146,40553,40079,41067
40316,39367,40158,40118,41067,40276,39881,40237
39881,40356,40039,40079,41027,39644,39684,39486
39051,40593,39960,39921,40909,38933,39605,39288
38182,39921,40000,39525,40237,38616,39446,39367
37273,38933,39960,39565,40000,38735,39446,39486
37391,37944,39723,39763,40000,38933,39407,39565
38893,37668,39367,39723,39684,38972,39446,39644
39881,38379,39051,39644,40079,39091,39605,39921
40237,39407,38656,39644,40553,39170,39684,40039
40790,39525,38537,39446,39881,38972,39644,39842
40000,39407,39288,39328,38419,38893,39525,39328
38616,39525,40039,39407,37510,39091,39367,38695
41660,41186,40593,40000,38221,40079,40039,40197
44624,41739,40276,40276,39130,41067,40276,41304
42174,40514,39407,40079,39763,41581,39842,40435
38261,39328,39170,39486,39960,41739,39486,39288
36522,38774,39881,39051,40000,41818,39486,38695
35810,39328,41027,39209,40356,41502,39723,39367
36205,40316,41541,39763,40514,40553,39881,40000
38340,40751,41304,39960,39960,39209,39723,39921
40276,40751,40316,40039,39486,38221,39644,39684
41344,40316,39209,40316,39842,38261,39565,39644
41818,40039,38458,40276,39881,38814,39605,39605
41541,39960,38182,39842,38933,39249,39684,39881
40909,40514,38695,39763,38735,39446,39644,40000
40435,40830,39565,39881,39723,39605,39605,40000
40000,40356,40000,39921,40514,39802,39565,39881
39684,39565,40158,39802,40593,39842,39486,39802
39605,37391,39960,39565,40276,39921,39486,39763
39763,36640,39842,39407,39960,39960,39565,39881
39921,38063,39763,39367,40000,40276,39684,40316
39921,40118,39763,39605,40237,40632,39881,40593
39842,41225,39881,39881,40276,40395,39842,39881
39921,41620,40158,40158,40514,40395,39921,39209
39802,42569,40316,40356,40553,40514,39881,39446
39605,43715,40237,40158,40079,40356,39684,39802
39605,43399,39763,39723,39486,40197,39684,40237
39486,41699,39407,39407,39170,39842,39881,41304
39960,40079,39684,39367,39249,38814,39881,41897
40514,38340,40356,39407,39446,38340,39723,40435
40316,36838,41541,39842,40079,39051,39486,37747
39605,35652,41858,40237,40395,40000,39486,37035
39288,35810,41027,40118,39644,40276,39525,38498
39209,37352,40118,40039,39130,40514,39565,39605
39763,39525,39644,40039,39209,40909,39605,40158
39960,41344,39249,39842,39565,40751,39644,40276
38419,41699,39249,39565,39802,40395,39684,40197
36403,41304,39723,39407,40158,40039,39644,39960
36205,40830,39802,39446,40553,40000,39763,39960
39644,40395,39328,39842,40711,40039,39802,40356
42648,39644,39091,39921,40672,39921,39842,40514
42490,38735,39051,39684,40237,39486,39763,40197
41186,38577,38972,39446,39486,39209,39644,39644
41265,39486,39170,39486,39446,39367,39723,39802
41778,40158,39130,39802,39525,39130,39763,40039
40790,39446,39051,39960,39525,39170,39644,39842
38695,38221,39170,39763,39288,39684,39605,39209
36877,38142,39842,39723,39446,40079,39486,38933
36798,39802,40988,39881,39684,39802,39684,39367
38537,40948,40869,39763,39605,39525,39723,39723
39605,40988,40356,39684,39446,39525,39565,39723
39842,40632,40435,39802,39605,39802,39486,39763
39881,40435,40356,39684,39723,40158,39486,39684
39605,40395,39921,39605,39842,40356,39565,39407
40158,40276,39565,39723,40079,40356,39802,39605
40593,40000,39446,39723,40316,40395,39842,39842
40593,39802,39565,39763,40356,40395,39763,39960
40632,39763,39684,39763,40197,40237,39723,40039
40593,40000,39407,39763,39921,40118,39723,40000
40000,40000,39209,39842,39960,40000,39723,40039
39209,39644,39525,40158,40039,39842,39723,40000
39367,39486,40039,40316,39802,39644,39684,39921
39763,39723,39921,39921,39446,39407,39605,39802
39288,39842,39367,39486,39486,39288,39565,39684
38854,39486,39051,39525,40395,39525,39565,39723
38814,38537,38814,39684,41067,39763,39525,39565
38854,37628,38854,39684,41107,39881,39486,39486
39407,38774,39051,39723,40948,39960,39644,39763
40237,40988,39328,39763,40276,39684,39881,40158
40711,41502,39525,39684,39328,39486,39684,40435
40356,41146,39842,39723,38537,39684,39605,40079
39960,40316,40316,39881,37944,40000,39525,39170
40039,39565,40672,39960,37786,40079,39644,39170
40276,39209,40948,39881,38537,39802,39802,39960
39881,39249,40751,39881,40039,39802,39802,40237
38854,39802,40474,40079,40988,39921,39723,39842
38893,40474,40395,40158,41304,40118,39684,39486
40197,40632,39842,39881,40751,39763,39644,39525
40356,40158,39170,39407,39802,39446,39605,39605
39684,39684,38933,39051,39367,39446,39565,39605
39486,39328,39130,39209,39407,39446,39605,39842
39842,39130,39565,39565,39723,39605,39605,40000
41265,39644,40039,39605,39525,39802,39644,40000
42213,40395,40514,39921,39605,40237,39881,40276
41225,40711,40553,40118,40000,40356,40079,40356
39209,40474,40316,39802,39723,39802,39802,39921
38379,40000,40197,39605,39328,39170,39644,39842
38537,39644,40118,39763,39486,39249,39644,39842
38379,39288,39921,39763,39763,39684,39802,39802
38221,39249,39802,39763,39921,39921,39802,39723
37984,39407,39802,39763,39960,40079,39723,39723
38656,39723,39921,39881,40000,40197,39446,39328
40000,40039,40000,39921,40158,40000,39328,39170
40000,40079,39881,39881,40118,39921,39486,39605
39881,40039,39842,39723,39921,39605,39644,40039
40751,40039,39921,39684,39763,38656,39723,40158
41146,40158,40039,40000,40000,38695,39842,40316
41107,40395,40118,40118,40158,39209,39881,40237
41265,40553,40079,39881,39842,39249,39763,39960
40000,37114,38103,38972,39091,39209,39644,40039
39091,36719,39091,39407,39367,39288,39446,39644
39407,37114,39842,39644,39684,39446,39407,39565
40593,39565,40197,39486,39407,39525,39644,39723
40948,41265,40237,39446,39209,39605,39644,39684
40553,42371,39763,39367,39091,39684,39407,39367
40118,43004,39486,39486,39525,40000,39367,39407
39921,41462,39644,39802,40197,40395,39842,39881
39763,39051,40197,40118,40395,40711,40079,40237
39842,39170,40395,40118,40276,40790,40197,40514
39921,40553,40356,39960,40197,40711,40118,40514
39407,40948,40356,39684,39960,40316,39723,40039
38735,40553,40593,39723,39684,39605,39328,39446
38577,40276,40790,39842,39565,39170,39170,39249
38972,39921,40395,39723,39723,39328,39446,39565
39763,38735,39723,39605,40000,39525,39644,40197
40197,38221,39446,39723,40237,39960,39684,40237
39960,39249,39723,40039,40672,40276,39684,39446
40000,40790,39842,40276,40672,40118,39842,39051
40276,41620,39723,40237,40276,40118,40000,39644
40118,41660,39605,39881,39723,40000,40039,39921
39802,41027,39446,39842,39605,39644,39723,39960
39644,40237,39249,39723,39565,39367,39486,39960
40039,39881,39525,39842,39684,39446,39525,40079
40395,39842,40316,40079,39842,39723,39605,40237
40039,39605,40869,40000,39960,39842,39605,40158
39486,39881,40909,39842,39960,39881,39644,39842
39288,40316,41146,39605,39842,39881,39684,39802
39684,40869,41344,39446,39525,39802,39684,39763
40237,41304,41146,39446,39407,39723,39802,39763
40435,40197,40593,39723,39605,39881,39723,39842
39605,38498,39684,39842,39763,40000,39723,39802
38656,38103,38814,39802,39723,39802,39763,39763
38419,38419,38300,39763,39881,39763,39723,39842
38024,38063,37944,39723,39960,39802,39763,39763
38656,37905,37984,39723,39802,39881,39763,39684
39960,38735,38774,39802,39723,39763,39723,39605
40435,39170,39525,39763,39684,39684,39644,39486
40237,39881,39842,39763,39763,39684,39446,39446
40237,40553,40276,39565,39763,39486,39328,39367
40395,40632,40711,39763,40000,39644,39407,39644
40158,41027,40751,39960,40000,39723,39565,39921
39842,41067,40435,39921,39644,39605,39644,40158
39605,41304,40435,39802,39446,39605,39763,40316
39525,42253,40593,39723,39565,39684,39842,40158
39605,42253,40553,39921,39763,39723,39565,39328
39644,41778,39960,40000,40039,39960,39565,39051
39881,40830,39091,39881,39921,40039,39960,39842
40158,39684,38379,39723,39960,40079,40197,40474
40435,39012,38498,39644,40118,40000,39960,40158
40079,38656,39209,39644,39842,39644,39486,39486
39802,38458,40039,39763,39723,39446,39407,39644
39684,38261,40790,40000,39881,39525,39525,40039
39407,38379,40830,40158,40237,39802,39605,40000
39209,38814,40197,39960,40118,39723,39605,39802
38774,39367,39842,39565,39684,39723,39525,39684
38854,40079,39921,39446,39525,39802,39565,39565
39328,40830,40553,39881,39921,40474,39763,39723
40118,40356,40790,40118,40435,41186,40079,40039
40395,38854,40316,40039,40514,41186,40000,40197
39881,38537,39209,39763,40316,40514,39644,39921
39684,39723,38577,39802,40197,40079,39565,39723
39881,40237,38695,39842,40039,39723,39565,39644
40039,40790,39091,39802,39802,39525,39605,39723
39960,41858,39407,39881,39565,39525,39644,39881
40079,40672,39921,39763,39288,39486,39763,39960
40197,38340,40474,39723,39170,39486,39842,39881
40276,38458,40553,39802,39486,39644,39802,39842
40118,40276,40316,39921,40000,39763,39684,39881
39763,41344,39881,39842,40039,39763,39644,39842
38933,41146,39288,39525,39802,39565,39565,39644
38656,40593,39012,39130,39486,39170,39684,39723
39565,40197,39051,39130,39446,39288,39723,39960
40395,40276,39249,39407,39684,39644,39684,40079
40435,40356,39802,39763,40000,39960,39644,40118
40079,39565,40435,39881,39881,40316,39644,40079
39605,39960,40751,39881,39605,40197,39525,39802
39288,40790,40276,39921,39644,39881,39565,39486
39446,39960,39605,39802,39684,39723,39684,39407
39960,37707,39367,39842,39842,39723,39684,39644
40118,35612,39802,39960,40118,39881,39763,39842
39367,34703,40118,39960,40039,39842,39763,39960
38498,36442,40276,39881,39960,39723,39723,40197
39091,39209,40197,39802,39842,39763,39763,40593
39763,41107,40197,39881,39881,40000,39723,40237
40316,42174,40790,40079,40000,40158,39723,39130
40514,42332,40988,39802,39802,40118,39960,39130
39960,41976,40395,39367,39486,40118,40000,39802
39565,41858,39763,39328,39723,40197,39881,40079
40118,41739,39091,39605,40197,40237,39723,40118
40632,41541,38103,39605,40039,39802,39328,39763
40869,40751,37589,39565,39605,39407,39249,39684
40039,38498,37628,39367,39091,38972,39209,39605
38695,37431,38024,39486,39288,39012,39525,39723
38300,38142,39012,39644,39605,39486,39802,39960
38182,39091,40276,39605,39723,39565,39842,39921
38577,39763,41027,39723,39960,39684,39763,39802
39446,40118,41541,39842,40079,39802,39684,39486
40869,40514,42569,39763,39881,39960,39565,39170
41897,41462,43518,39684,39763,40197,39644,39525
41541,41937,43004,39842,39921,40356,39723,39881
38458,41778,41344,40000,40039,40553,39723,39486
37114,42371,39960,40039,39960,40474,39723,39367
39012,43992,39525,40276,39842,40237,39763,39881
40869,42095,38893,40356,40118,40276,39921,40356
42055,38379,37905,40237,40276,40197,39921,40593
40790,37233,37470,40197,40237,39684,39723,40435
38182,38419,37905,39842,39644,38933,39525,40000
38656,38893,39012,39565,39209,38498,39486,40118
40632,38261,39605,39525,39407,38774,39525,40316
40988,36877,39723,39605,39881,39565,39644,40039
40474,35810,40000,39684,40197,40197,39763,39446
39881,36680,40553,39446,40079,40514,39763,39328
38972,38854,41027,39407,39921,40632,39644,39328
38182,39012,40632,39328,39644,40514,39565,39209
38340,36917,39605,39130,39091,39921,39367,38854
38854,38498,39051,39051,38972,39446,39170,38577
39170,44190,38972,39249,39091,38972,39170,38814
39921,44111,39565,39763,39684,39288,39446,39684
40553,42134,40593,40276,40118,39525,39684,40237
40593,43478,40988,40435,40158,39486,39802,40553
40395,44901,40948,40514,40000,39446,39842,40711
40435,43952,40869,40474,40000,39644,40039,40830
40158,40395,40237,40237,40000,39881,40158,40711
39288,36680,39130,39881,40039,40039,40158,40316
38577,34387,38300,39881,40356,40079,39802,39802
38735,34466,38379,40158,40553,40158,39644,39367
39525,36087,38854,40237,40316,40197,39723,39407
39486,37944,38933,39763,39644,39802,39605,39486
39407,39446,38537,39209,39328,39525,39605,39605
39802,40435,39051,39209,39446,39565,39605,39723
40237,40869,40435,39407,39525,39486,39684,39802
40316,40593,41146,39644,39644,39446,39565,39842
40000,40276,41502,39802,39684,39367,39288,39723
39644,40276,41304,39565,39605,39288,39170,39367
39446,39684,40514,39446,39644,39328,39170,39328
39407,39170,39446,39446,39565,39486,39565,39565
39012,38893,38340,39486,39407,39446,39763,39684
38616,38695,38024,39565,39446,39565,39881,39802
39130,38972,38537,39723,39684,40039,40039,40039
39960,39960,39486,40000,40237,40672,40000,40158
40435,40948,40474,40316,40711,40672,39881,40197
39881,41383,40909,40356,40553,40316,39684,40000
38814,41186,40909,39921,39802,39763,39367,39684
38537,40316,40632,39407,39130,39249,39367,39446
39486,40000,39881,39367,39209,39407,39644,39684
40514,40514,39249,39921,39881,39881,39881,40079
40909,41383,39209,40435,40395,40316,40118,40316
40830,42055,39605,40276,40316,40435,40276,40356
39881,41937,39723,39921,39881,40118,39960,40039
38340,40632,39921,39407,39328,39407,39367,39328
37352,39051,39881,38893,38893,39051,39012,38498
41344,40000,40593,39407,39644,39723,39684,39881
44308,39644,41067,40039,40435,40316,40197,41304
41699,37273,40593,39881,40316,40158,39921,40909
39130,37707,40553,39684,40079,39842,39565,40079
38458,39367,40909,39802,40158,39802,39328,39130
39091,40474,40909,40079,40197,39921,39446,38735
39684,41858,40632,40039,40000,39881,39723,39525
39565,42490,40118,39881,39723,39921,39802,40118
39328,41897,39723,39763,39525,40000,39802,40395
39170,39249,39249,39684,39763,40118,39763,40197
39209,37391,38498,39921,40395,40276,39644,39921
39367,38103,37786,40079,40672,40276,39565,39644
39328,39763,37549,39644,39842,39881,39446,39249
39525,40593,37905,39209,39130,39486,39605,39328
39802,40790,38735,39486,39328,39565,39960,39842
39842,40672,40118,39763,39644,39802,40039,40237
40316,40474,41265,40000,40000,39842,39881,40356
40988,40158,41581,40197,40435,39842,39684,40395
41383,39881,41739,40079,40356,39763,39644,40237
41383,40000,41541,39921,40039,39960,39605,40039
40356,40435,41423,39960,39921,40118,39644,39842
38379,41067,40988,39763,39565,40118,39525,39486
37668,40948,40197,39605,39367,40079,39605,39328
39249,40435,39446,39802,39802,39960,39802,39605
40830,40632,38854,39881,40000,39881,39723,39723
40711,41107,38340,39763,39960,39644,39525,39763
40197,41107,38300,39802,40158,39763,39644,39881
39763,39288,38577,39644,40039,39842,39723,39802
39407,36561,39170,39407,39486,39723,39802,39960
39209,36601,39684,39446,39407,39723,39881,40079
39051,37312,40079,39802,39881,39723,39842,39960
38933,36680,40514,40197,40435,39921,39684,39605
38893,36680,40672,40118,40316,40000,39525,39288
39091,38063,40514,39921,40039,39881,39565,39525
39684,39012,40237,39525,39723,39802,39525,39684
39209,38695,40000,39249,39209,39407,39446,39525
39565,40039,39565,39130,38933,39130,39446,39605
40553,42727,39565,39209,39091,39249,39525,39842
40553,43201,39486,39367,39209,39605,39723,39802
40316,44269,39367,39644,39367,39763,39802,39921
40276,46008,39565,40079,39802,40118,39921,40079
40316,44782,39881,40197,40276,40514,39881,40197
40237,41699,40000,40237,40553,40593,39881,40197
39802,39170,40237,40197,40435,40197,39684,40079
39367,37391,40276,40000,39960,39723,39525,39763
39130,36324,40276,39960,39802,39525,39565,39644
39012,36087,40197,40079,40316,39723,39644,39644
39209,36324,39921,40079,40553,39802,39605,39565
39723,36838,39565,39684,40197,39763,39565,39605
40118,37905,39684,39328,39565,39723,39802,39881
40276,39605,40553,39328,39525,39802,40000,40435
39644,40474,41462,39209,39407,39684,39881,40593
38972,40435,41541,39328,39407,39842,39684,40039
39051,40672,42174,39921,40197,40395,39644,39249
39525,41344,42609,40435,40909,40909,39763,39525
39763,41581,41027,40395,40790,40553,39842,40039
40000,41620,38656,39881,40079,39960,39644,39881
40316,41423,37431,39407,39249,39446,39328,39565
40632,41027,37233,39209,38695,39130,39407,39446
40830,40909,37905,39486,38854,39288,39525,39486
40790,41778,38893,39842,39644,39802,39723,39763
40751,41937,38972,40158,40158,40079,39802,39960
40395,40909,38458,40118,40316,40276,39723,39960
38854,40435,37984,40039,40316,40197,39723,39921
37352,39921,37905,39565,39881,39565,39723,39644
37786,39091,39130,39525,39486,39051,39644,39565
38577,39012,40356,39763,39605,39130,39565,39644
39209,39605,40672,39802,39802,39644,39644,39921
39960,39486,40948,39881,39763,39802,39723,40118
40276,38972,41265,39960,39644,39644,39525,39960
40158,38735,42055,39881,39763,39525,39367,39723
40079,38656,42569,39684,39723,39407,39486,39644
39763,38735,41818,39446,39446,39249,39565,39644
38814,38814,40909,39486,39407,39525,39644,39644
38261,39407,40356,39723,39842,40316,39960,39763
39565,40197,39763,39921,40276,40869,40118,40039
40790,39684,39209,40197,40553,40869,40158,40118
40593,38616,38419,40118,40474,40435,39960,39921
40316,39525,37628,39763,39842,39763,39565,39486
40237,40158,37273,39525,39209,39328,39367,39486
39921,39525,37391,39446,39170,39328,39565,39960
39446,39170,37905,39486,39446,39486,39644,40395
39328,39051,38695,39802,39960,39565,39525,40118
40000,39486,39486,40316,40356,39881,39525,39170
40632,40395,40237,40356,40237,39921,39723,39367
40474,40751,40593,40000,39644,39565,39723,39960
40079,41067,40276,39605,39446,39249,39525,39960
38735,40395,39486,39328,39486,39091,39328,39446
38142,39763,39288,39170,39525,39130,39209,38972
39605,40000,40158,39486,39565,39249,39328,39051
41186,39960,40988,39684,39644,39328,39605,39644
40672,39605,41107,39763,39723,39525,39881,40356
38221,39130,40830,39921,39723,39525,39842,40435
35850,38577,40237,39763,39486,39486,39644,39565
36877,38182,39565,39644,39288,39565,39605,39091
38933,38261,38933,39605,39367,39842,39565,39446
40197,38616,38537,39763,40000,40316,39842,40079
41146,39525,38616,40039,40751,41186,40395,40632
41620,40276,38972,40158,40948,41265,40435,40711
41265,39960,39921,40079,40751,40672,40039,40316
40948,39684,40909,39802,40039,40118,39644,39921
40948,40237,41541,39486,39367,39605,39407,39763
40830,41067,41778,39486,39051,39249,39367,39723
40356,41462,41660,39684,39328,39091,39407,39802
39802,41858,41265,39842,39723,39249,39446,39684
39763,42569,40711,39921,40000,39486,39605,39723
39763,42371,39921,40158,40316,39802,39842,39921
39605,41186,39130,40039,40000,39921,40079,40158
39367,40197,38735,39605,39525,39960,40039,40118
39091,39565,38577,39407,39446,40079,39763,39723
38814,39091,38616,39367,39486,40118,39407,39367
38774,39367,38933,39525,39960,40276,39367,39328
39249,40632,39763,39921,40435,40435,39486,39486
39763,40356,40435,40118,40553,40474,39723,39842
39842,38933,40751,40039,40395,40237,39842,40039
39525,38695,40711,39842,40079,39842,39842,40079
39170,40790,40790,39763,39802,39446,39723,40118
39644,43201,40948,39684,39605,39170,39565,40237
40276,41818,40316,39644,39644,39249,39525,40197
40356,37431,39407,39644,39802,39486,39605,39802
40237,35217,38577,39565,39763,39881,39763,39763
39881,36640,38300,39565,39802,40197,39802,39842
39407,38458,38735,39684,40039,40553,39921,39881
39130,38854,40079,39842,40316,40711,39921,39842
39565,39763,41778,40000,40395,40514,39960,39921
39565,40790,43201,40000,40237,40079,39842,39763
39012,41146,43676,39921,39842,39684,39446,39407
38893,41146,42648,39802,39525,39446,39407,39328
39763,40830,40197,39921,39525,39446,39565,39723
40237,41225,38379,39960,39565,39605,39644,40039
40356,42569,37589,39960,39684,39723,39605,40039
40672,43043,37154,39802,39763,39763,39644,39921
40909,41225,36640,39605,39921,39842,39723,39921
41739,40316,39565,39644,39763,39605,39684,39565
42529,40395,39644,39644,39763,39407,39723,39525
43360,40790,40000,39723,39960,39367,39802,40118
42846,41027,40158,39802,40039,39644,39960,40514
38656,40514,40158,39802,39802,40158,39842,40276
33636,39842,40000,39605,39367,40158,39684,39960
34427,39328,39605,39605,39328,39881,39446,40118
38498,39170,39328,39921,39802,39723,39288,39684
40435,39407,39446,40237,40000,39684,39328,38735
40237,39288,39209,40039,39802,39565,39446,38774
39091,38695,38498,39723,39644,39565,39565,39407
38656,38182,38379,39565,39763,39644,39723,39842
38854,38695,39486,39565,39723,39605,39842,40118
39367,40079,40632,39802,39960,39842,39881,40276
40237,40988,40514,40000,40435,40237,39921,40316
41699,41383,39802,39960,40474,40276,39881,40158
42648,41462,39802,39921,40118,39921,39842,40158
42569,41027,40197,39802,39960,39802,39802,40276
41502,40118,40237,39565,39486,39763,39644,40079
40435,40000,39960,39367,39288,39763,39565,39723
39407,41581,39763,39367,39565,39881,39605,39328
38498,42253,39644,39446,39763,39960,39525,39130
38379,40948,39565,39565,39921,40039,39486,39367
38695,38419,39288,39605,39921,39802,39565,39921
38142,35296,39170,39723,39723,39446,39684,40237
37668,33438,39525,39723,39525,39288,39684,40000
38774,35494,40276,39763,39644,39486,39684,39565
39170,37707,40751,40000,40079,39802,39763,39525
38537,39446,40514,40197,40395,40118,39723,39723
38419,41344,40316,40000,39921,39921,39684,39881
38854,42095,40158,39960,39605,39605,39723,39960
39842,42609,39960,39802,39288,39328,39605,39881
40514,42569,39565,39525,39288,39565,39605,39763
40672,41858,39486,39565,39802,40197,39723,39565
41146,40276,39960,39723,40118,40435,39684,39605
41265,39170,40316,39684,40079,40435,39605,39644
40553,39051,40553,39723,40039,40197,39605,39565
39684,39012,40514,39881,39960,39802,39644,39763
38695,39170,40276,39684,39644,39644,39723,40395
38379,39051,39684,39288,39328,39644,39921,41146
39012,39249,39012,39209,39407,39802,39921,41383
39644,39644,38577,39367,39644,39960,39525,39565
40118,40000,38774,39802,40158,40197,39446,37470
40474,39881,39091,40158,40711,40395,39684,38261
40158,39209,39328,40000,40553,40316,39763,39684
39091,38933,39446,39960,40079,39881,39723,40276
38893,39763,39684,40000,39723,39486,39644,40395
39091,39644,40395,40316,40079,39921,39802,40553
39091,39012,40474,40197,40158,40237,39921,40435
39407,39091,40000,39960,40079,40118,39881,40276
39684,39407,39802,40158,40237,40039,39763,40118
38972,39525,39486,40000,40118,39960,39644,39684
38498,39249,39091,39565,39644,39565,39446,39209
38735,39525,39328,39446,39446,39328,39367,39051
39209,40079,39960,39486,39486,39525,39446,38933
40197,40356,40632,39288,39486,39723,39644,38893
41146,40711,41107,39170,39723,39921,39723,39328
42253,41225,41304,39525,40276,39881,39763,40118
42609,41304,40830,39763,40356,39486,39644,40474
41067,40988,39921,39842,40039,39328,39525,40395
39209,40593,39288,39802,39525,39565,39565,40276
40316,40593,39446,39763,39209,40000,39763,40435
41541,40830,40158,40118,39605,40474,40000,40514
40158,40474,40158,40356,40158,40711,40039,40276
38458,39525,39367,40316,40197,40514,39881,39881
38063,38893,38695,39802,39367,39960,39644,39486
38656,39170,38577,39565,39051,39486,39407,39288
39170,39644,39012,39565,39367,39170,39446,39328
38735,39881,39723,39644,39842,38972,39486,39288
38814,40039,40039,39723,40316,39130,39565,39328
40039,40197,39921,39684,40553,39525,39723,39802
41265,40316,39921,39802,40435,40000,39842,40118
41541,40276,40395,39881,40356,40158,39842,40237
40988,39921,40869,40000,40316,39802,39644,40158
40039,39525,41027,40000,39960,39328,39565,40039
39288,39525,40553,39763,39446,39051,39565,39960
39209,39763,39921,39605,39328,39328,39525,39842
39367,39960,39684,39684,39763,39802,39644,39605
38458,40000,39684,39763,40079,40118,39763,39288
36917,39802,39723,39960,40276,40276,39684,39170
37589,39763,39525,39960,40158,39921,39525,39288
39763,39644,39288,39644,39842,39328,39367,39644
41344,39525,39367,39328,39407,39209,39525,39842
42213,39565,39605,39446,39209,39684,39763,40276
43043,40474,39960,39684,38814,40039,39881,40632
43083,41423,40276,39763,38300,40158,39921,40830
41778,40909,40672,39881,38695,40079,39802,40672
39802,39486,40632,40000,40000,40000,39684,40118
38300,38419,39881,39802,40632,39802,39605,39565
37628,38695,39328,39684,40790,39842,39486,39328
37944,39921,39605,39684,40514,39842,39565,39288
38656,40869,40079,39644,39881,39723,39565,39249
39249,41067,40474,39684,39684,39565,39684,39605
39525,40869,40672,39763,39881,39605,39881,40000
39486,40751,40395,39881,40356,39881,39921,39881
39407,40553,39605,40039,40514,40197,39881,39763
39446,40316,38972,40000,40435,40276,39644,39723
39525,40276,38933,39763,40474,40000,39565,39684
39446,40158,39328,39684,40435,39605,39446,39763
39446,39802,39921,39723,39605,39525,39486,39842
39565,39644,40593,40000,39328,39921,39763,40079
40197,39328,40435,40118,39130,40039,39802,40000
40435,38656,39881,39921,39446,39763,39684,39960
40039,37905,39249,39605,39565,39486,39565,39921
39684,37470,38774,39288,39091,39367,39565,39802
39763,38024,39170,39367,39130,39723,39723,39763
39802,38616,39802,39723,39367,40118,39802,39684
39802,38972,40079,39842,39051,39802,39684,39684
40790,40000,40276,39802,38814,39407,39605,39802
41699,41067,40632,39723,39170,39723,39605,39723
40790,41818,40474,39842,40276,40158,39565,39407
39644,41739,39684,39921,40869,40079,39644,39565
39684,41186,39130,39644,40593,40276,39723,39921
40435,40790,39091,39644,40474,40632,39802,40316
41027,40276,39367,39763,40514,40711,39921,40553
40593,39684,39486,39881,40514,40830,39960,40869
39723,39130,39684,40000,40356,40316,39763,40435
38893,38695,39881,39960,40316,39565,39367,39051
38379,38656,40237,39921,40118,39170,39288,38379
37984,38933,40237,39960,39960,39170,39605,39091
36601,39486,40079,40039,39763,39407,39881,40039
34506,40079,39842,39921,39486,39684,39881,40276
34545,39921,39644,39684,39130,39684,39644,40474
37312,39525,39486,39605,39130,39763,39486,40474
40909,39051,39328,39486,39288,39407,39209,39170
44466,39288,39644,39763,39881,38893,39367,38024
47628,40830,40356,40197,40632,39091,40158,39842
45099,40830,40356,40000,40276,39328,40039,40672
41186,40039,40039,39644,39605,39446,39763,40395
39842,39763,40118,39525,39407,40039,39723,40276
39486,40079,40435,39644,39644,40514,39763,40079
38854,40158,40356,39921,39921,40632,39605,39723
38024,39802,39960,40000,40000,40632,39446,39565
37470,39249,39367,39684,39763,40237,39486,39565
37707,39012,38735,39565,39525,40039,39684,39525
38024,39209,38498,39525,39605,40316,39605,39288
38498,39960,39091,39605,40039,40632,39565,39367
39012,40632,39960,39525,40039,40672,39565,39565
39446,40909,40514,39565,39763,40158,39684,39881
39960,41304,40869,39763,39960,39605,39921,40118
40237,41858,40830,39802,39921,38933,39842,40079
40316,42016,40632,39881,39881,38577,39723,40039
40316,41620,40237,40000,40039,38616,39644,39921
40158,40553,39763,39842,40039,38933,39723,40000
40553,39842,39763,39802,40079,39486,39763,40158
40593,39644,39565,39802,39723,39842,39605,39960
40079,39367,39367,39723,39605,40276,39525,39723
39446,38577,39763,39763,39723,40909,39684,39525
39130,37707,40237,39723,39842,41027,39644,39446
39130,37352,40672,39644,39802,40474,39723,39486
39723,37905,40790,39486,39565,39802,39802,39763
39763,39170,40751,39644,39842,39802,39842,40000
38577,40395,40672,39802,40237,39960,39723,39802
38537,41462,40356,39921,40118,39881,39605,39644
40237,42411,39249,39644,39644,39328,39605,39684
41067,42925,38379,39525,39565,39051,39763,39921
40474,42016,38458,39842,40000,39486,39684,39921
39644,40474,38933,39881,40039,39881,39605,39842
39407,39209,39525,40000,40039,40197,39684,39921
39605,38379,39881,40079,40079,40395,39763,39960
40039,38142,39723,39921,40000,40237,39723,39802
39960,37312,39328,39644,39842,39842,39565,39723
39486,34506,38735,39288,39486,39367,39288,39605
40553,34506,38972,39170,39130,39091,39328,39684
41107,38735,39763,39367,39209,39407,39565,39921
40395,42055,40514,39684,39684,40039,39763,40039
39723,42925,40790,40000,40276,40435,39921,40000
39525,43083,40711,40276,40356,40276,39960,40039
39644,42371,40356,40276,40197,39723,39881,40039
40197,40909,39881,39842,39644,39486,39763,39960
40869,39881,40000,39644,39446,39802,39881,40000
40632,39723,40435,39960,40118,40395,40197,40197
39881,39249,40356,40237,40632,40197,40118,40079
37470,38695,39842,40039,40474,39644,39802,39605
36561,38577,39367,39446,39605,39249,39328,39209
38972,38933,39130,39170,39249,39605,39249,39486
41581,39644,39170,39249,39249,39921,39407,39960
41304,40197,39486,39249,39051,39763,39565,40158
38103,40197,40276,39446,39249,39605,39684,40276
36482,39565,40632,39525,39644,39446,39605,39921
38221,38854,41067,39644,40039,39367,39525,39605
40632,38933,41778,39960,40276,39486,39605,39723
41502,39525,41699,40316,40553,39802,39723,40039
41186,39763,40672,40474,40553,39960,39763,40039
40079,39328,39486,40118,40079,39842,39605,39763
39881,38972,38142,39684,39170,39446,39486,39249
40118,39328,37114,39288,38972,39486,39525,38972
40711,40672,36996,39367,39328,39723,39644,39091
39881,42055,37549,39684,39802,39960,39684,39446
38933,41976,38340,39881,39921,40039,39723,40118
38933,40909,38893,39723,39881,39881,39802,40316
37826,39605,39684,39684,39921,39842,39921,40158
38261,39051,40316,39921,40316,40079,40039,40237
39763,39249,40593,40039,40356,40039,40000,40276
40474,39644,40948,39960,39960,39921,39802,40237
40276,39921,41344,39842,39723,39921,39605,40197
39921,40197,41541,39842,39881,39802,39486,39960
39723,40593,41858,39881,40039,39644,39367,39446
39644,40711,41581,40000,40039,39644,39446,38933
39763,40395,40672,39684,39684,39525,39525,39367
39605,39921,39565,39446,39367,39407,39605,39842
39367,39605,38695,39486,39565,39525,39644,39921
39209,39407,38735,39723,39763,39723,39565,39842
39288,39486,38972,39802,39960,39881,39644,39723
39328,39605,39209,39881,39960,40000,39723,39644
39407,39842,39328,39881,40158,39960,39763,39565
39763,40000,39288,39605,40237,39881,39723,39644
40000,40039,39170,39684,40039,39763,39763,39842
40000,39921,39051,39881,40158,39960,39802,39960
40039,40000,39249,40118,40435,40276,39723,40000
40079,40079,39525,40000,39921,40079,39605,39802
40237,39921,39644,39842,39170,38774,39565,39802
40237,39723,39684,39644,38893,37944,39723,39802
39960,39644,39684,39446,38774,38695,39842,39802
39881,39684,39842,39486,39130,40000,39802,39842
39881,39842,40039,39723,39684,40672,39842,39960
40118,40118,39960,39960,40039,40751,39802,40079
40790,40158,40000,39960,40237,40869,39802,40197
41067,40197,40316,40000,40395,40948,39723,40158
39644,40276,41146,39960,40316,40593,39684,40039
36522,39960,41304,39842,40316,40039,39525,39644
35059,39486,40988,39921,40632,39842,39407,39288
37786,39565,40830,39881,40751,39960,39525,39367
41027,40039,40632,39802,40672,40079,39684,39684
42450,40435,40356,39960,40711,40118,39881,40158
42292,40830,40158,40197,40395,39565,39921,40632
41067,40632,39723,39881,39605,38616,39723,40474
39644,39881,38854,39249,38893,38103,39565,39723
39921,39486,38577,39209,38893,38379,39565,39407
41225,39525,38656,39446,38933,39170,39605,39605
40830,39565,38893,39605,39012,39684,39525,39723
38774,39288,39288,39802,39723,40039,39486,39605
38458,39130,39605,39802,40553,40316,39525,39367
39684,39328,39763,39723,40553,40435,39644,39446
39328,39565,39881,39723,40237,40356,39763,39763
38261,39881,40237,39842,39723,40276,39881,40158
38419,40237,40474,39960,39446,40395,39960,40237
39842,40474,40632,40079,39367,40276,39802,40079
40632,40711,40395,40039,39407,40316,39723,39960
40988,40711,39881,39881,39407,40474,39644,39960
40395,40356,39842,39881,39486,40395,39644,39881
39525,40079,40079,39763,39881,40118,39605,39802
39565,40158,40276,39407,40158,39723,39605,39723
39644,39960,40316,39170,39960,39407,39486,39565
39842,39684,40079,39328,39684,39605,39446,39525
39723,39960,40118,39723,39960,39921,39644,39763
39446,40356,40316,39960,40079,39684,39960,40039
39486,40395,40118,40039,39842,39288,39881,40118
39407,39881,39486,39960,39249,38972,39644,39842
39407,39446,39051,39763,38933,39012,39565,39684
40118,39288,39249,39565,38972,39367,39565,39802
40158,38933,39486,39644,39525,39684,39605,39723
39921,38537,39565,39802,40237,40039,39565,39644
40395,38814,39486,39881,40790,40197,39644,39684
40593,40118,39407,40000,40909,40118,39763,39842
40316,41818,39288,39763,40672,40118,39763,39763
39209,42253,39209,39565,40118,40197,39525,39565
38656,41383,39367,39644,39763,40197,39605,39763
39288,40356,39446,39763,39486,40356,39842,40197
40514,39407,39565,39723,39091,40237,39960,40395
40790,38458,40079,39802,39249,40039,39684,40118
40435,38300,40909,40079,39763,39881,39525,39486
40395,38458,41502,40237,40039,39960,39723,39565
40079,38577,41462,39881,39763,39723,39881,39881
39209,39802,41027,39565,39407,39328,39684,40000
38814,41423,40672,39565,39605,39407,39763,40474
39407,42648,40553,39723,40000,39842,39960,40948
39367,42569,40079,39921,40474,40276,39802,40356
38458,41620,39288,40197,40672,40158,39486,38695
38419,40316,38854,40000,40276,39842,39407,38458
39407,39486,39012,39723,39960,39605,39605,39407
40711,39091,38933,39605,39842,39684,39723,40158
41265,38300,38972,39684,39684,39842,39802,40276
41107,37193,38814,39565,39723,39763,39723,40000
40553,36047,38933,39565,39960,39921,39644,39842
40118,34150,39367,39723,40316,40000,39684,39921
40000,34624,39921,39802,40316,39960,39565,39842
39170,38103,40237,39881,40237,39842,39486,39605
37470,41660,40316,39565,39525,39644,39565,39842
36324,43557,40514,39288,38577,39644,39723,40158
37826,44111,40790,39565,38656,39763,39802,39802
40316,43834,40751,40158,39605,40118,39763,39328
40909,42450,40118,40197,40435,40158,39723,39328
40079,40830,39446,39802,41146,39802,39644,39525
39091,39249,38814,39644,41146,39170,39446,39684
40118,41462,38972,39802,39881,39921,39684,39881
40000,41699,39328,39881,40118,39960,39723,39921
39605,41344,39644,39921,40118,40039,39881,40079
39328,40395,39644,39802,39921,40039,39881,40118
39367,39644,39565,39605,39684,39881,39723,39921
39763,39170,39842,39644,39565,39881,39644,39763
39723,39051,40395,39802,39605,39842,39486,39525
39170,39012,40474,40079,39960,39763,39407,39328
39012,38063,40000,39921,40000,39525,39367,39446
39367,37668,40039,39605,39763,39288,39367,39328
40197,40276,40474,39407,39486,39407,39605,39644
40869,43201,40672,39605,39802,39802,39842,40237
39802,43083,40395,39684,40039,40079,39842,40237
38419,40909,40039,39684,39921,40079,39723,40039
39209,39012,39644,39723,40000,40079,39723,40000
40356,37510,39249,39881,40079,40118,39842,40079
40474,37747,38814,40079,39842,39960,39842,40158
40869,39446,38774,40039,39842,39723,39723,40158
40435,40672,39091,39960,39881,39605,39684,39881
39921,41146,39407,39763,39842,39525,39644,39565
40039,40948,39723,39802,39763,39565,39644,39565
39921,40118,39960,39842,40000,39842,39842,39684
39525,39367,39960,39881,40237,40000,39802,39881
38656,39565,39881,39921,40237,40118,39644,39881
37747,40790,39723,39881,40197,40158,39525,39644
38577,41818,39842,39802,39960,39960,39565,39565
40079,41620,39921,39684,39486,39723,39723,39763
40197,39407,39921,39565,39407,39684,39684,39881
39209,36917,39605,39763,39763,39842,39684,39881
38695,35929,39209,39881,39802,39960,39684,39802
38024,36442,39130,39525,39486,39684,39565,39565
38577,36403,39170,39446,39288,39328,39446,39209
40474,37628,39605,39170,39209,39209,39367,39209
42016,39881,40514,39288,39446,39446,39565,39684
41897,41304,41225,39565,39763,39763,39842,40118
40948,41778,41423,39921,39960,39842,39881,40237
40593,41225,41225,40118,40118,39842,39763,40276
40316,40553,40632,39921,40158,40000,39802,40316
39842,40988,40158,39842,40276,40118,39802,40316
39684,42016,40276,40039,40316,40039,39802,40158
39802,43201,40197,40118,40000,39881,39723,39960
39565,42846,39605,39842,39802,39842,39565,39605
39565,40830,38933,39644,39644,39842,39605,39605
39605,38774,38814,39881,40000,40000,39763,39684
39644,38063,39209,40158,40237,40158,39802,39802
39565,38063,39763,40158,40118,40158,39723,39763
38616,38103,40395,40039,39802,39921,39644,39565
38458,38063,40751,39802,39802,39763,39605,39407
39407,38142,40632,39565,39881,39763,39525,39565
38656,38458,40356,39130,39605,39644,39525,39525
36087,38577,40316,39249,39605,39644,39486,39367
36522,37944,40118,39525,39802,39723,39446,39525
40039,37905,39407,39644,39723,39644,39565,40197
42174,40316,38616,39565,39605,39644,39644,40553
42450,42767,38379,39565,39723,39763,39644,39644
42332,43122,39012,39684,39881,39881,39763,39130
41897,42411,39605,39842,39763,39802,39842,39723
41344,41265,39960,40000,39921,39921,39960,40356
40435,40039,40118,40276,40079,40039,39881,40435
38735,40158,40118,40474,40197,40158,39644,40079
38103,40079,39881,40316,40118,40237,39565,39842
38537,39407,40000,39960,39802,40039,39605,39723
39012,38893,40237,39486,39367,39684,39605,39644
39328,38735,40395,39328,39170,39525,39644,39763
39367,39091,40435,39605,39644,39802,39763,39881
39091,39249,40079,39842,40039,39842,39723,39763
38695,38854,39367,39684,39960,39605,39684,39525
38537,38774,38854,39802,40079,39644,39644,39328
39012,39486,38972,39525,39842,39605,39605,39249
39525,39881,39644,39486,39446,39525,39486,39605
40000,40039,39921,39763,39486,39723,39565,40079
40395,40197,39763,39842,39684,40079,39723,39842
40553,40158,39130,39881,40039,40316,39802,39486
40474,39881,38458,40039,40435,40237,39763,39802
40079,39644,38142,39921,40316,39881,39684,39960
39723,39842,38458,39802,39921,39525,39525,39960
39565,39881,39249,39684,39605,39328,39525,39881
39684,39684,40000,39723,39644,39565,39684,40079
39644,39367,40553,39684,39684,39644,39763,40079
39288,39723,40751,39763,39842,39802,39763,39881
39288,40593,40830,40000,40197,40039,39684,39763
39407,40711,40869,40079,40158,40118,39802,39802
39605,40237,40751,39881,39881,40079,39842,39763
39881,40593,40672,39763,39723,40079,39842,39723
40000,40711,40276,39802,39763,39921,39565,39684
40039,40197,39960,39684,39605,39446,39209,39565
40197,39684,39525,39723,39684,39249,39328,39723
40514,40079,39407,39842,39842,39407,39644,39960
40356,40514,39367,39723,39921,39644,39763,40079
39921,40435,39209,39605,39842,39644,39842,40039
39644,39842,39091,39486,39763,39921,39763,39842
39802,39288,39249,39565,39921,40435,39684,39684
40237,39209,39881,39605,40079,40711,39763,39763
40356,39446,40830,39802,40118,40435,39842,39842
40158,39446,41265,40079,40158,40237,39763,39802
39684,39565,41107,40158,40158,40276,39644,39842
38774,39802,41027,40237,40197,40197,39763,40000
38695,40079,40830,40197,40118,39684,39842,40079
40158,40356,40474,39802,39644,39091,39644,39960
40830,40474,40079,39605,39525,39012,39486,39802
40158,40435,39881,39684,39644,39446,39486,39723
38972,40474,39525,39842,39802,39960,39684,39763
38221,40276,39249,39684,39802,40197,39684,39525
38656,39881,39525,39644,40000,40356,39723,39605
40000,40197,39684,39684,39921,40000,39723,39763
40948,41027,39407,39565,39644,39684,39644,39802
41067,41225,39130,39605,39605,39763,39644,39960
40790,41423,39446,39802,39802,40000,39881,40158
40435,41937,40474,39881,39881,40000,39802,40118
40118,41423,41502,40039,40000,39684,39644,40000
39723,40158,41541,40000,40039,39565,39723,40000
39525,39209,41027,39763,39960,39723,39802,39921
39486,39130,40316,39802,39881,39921,39723,39842
39644,39565,39684,39802,39802,39960,39644,39960
39842,40000,39367,39763,39723,40237,39723,39960
39486,39921,39012,39763,39802,40276,39723,39723
39012,38656,38814,39960,40079,40118,39605,39644
39012,37707,39130,40079,40316,39881,39565,39644
39367,38537,39605,39921,39960,39446,39486,39763
39842,40988,39802,39565,39605,39091,39605,39921
40158,41225,39763,39605,39921,39525,39802,40039
39644,39091,39446,39723,39960,39763,39684,39802
39091,37747,39051,39723,39842,39842,39605,39446
39091,36166,39605,39723,39644,39723,39525,39209
39091,35257,40118,39802,39486,39605,39605,39328
39367,38300,40276,39960,39684,39644,39842,39802
39960,42213,40079,39881,39881,39644,39881,40079
40276,43360,40000,39763,39802,39802,39921,40395
39605,42213,40118,39525,39763,39763,39881,40711
38379,40830,39763,39407,39525,39802,39605,40118
39288,40474,39367,39565,39644,39881,39525,39170
40869,41739,39130,39842,39921,39842,39644,38972
41186,43162,39328,40118,40079,39644,39525,39605
40751,42885,39921,40039,40079,39565,39525,40118
40316,41304,40435,39763,39723,39367,39486,40158
39525,39525,40593,39723,39367,39486,39486,39881
38656,38379,40395,39802,39486,39723,39644,39763
38577,37668,39921,40079,40079,40000,39842,39960
39170,37154,39446,39960,40079,40000,39881,39960
39565,36363,39367,39881,40079,39960,39842,40000
39367,35889,39367,39723,40000,40000,39763,39842
39130,36008,39367,39525,39605,39881,39644,39605
39328,36482,39525,39328,39525,39684,39644,39407
39446,38419,40039,39565,39763,39684,39605,39367
39644,39605,40356,39605,39842,39684,39525,39367
40237,38498,40237,39446,39565,39486,39446,39407
40988,38814,40197,39565,39525,39605,39605,39684
40751,41699,40395,39684,39605,39763,39644,39881
39763,44190,40237,39644,39644,39802,39723,40000
39051,44980,39684,39565,39565,39802,39802,39881
39051,44190,38893,39407,39407,39802,39684,39881
39684,42292,38498,39446,39565,39881,39684,40000
40514,40632,38933,39802,40039,40118,39763,40316
40751,40395,39605,40276,40316,40237,39802,40356
39960,40158,39763,40395,40356,40356,39842,40079
39960,38933,39407,40158,40197,40276,39723,39644
39842,37589,39051,39802,40118,40158,39525,39328
39565,37312,39446,39763,40237,40118,39565,39367
39170,38854,40474,39684,40197,39881,39644,39525
38854,40988,41107,39802,40237,39842,39842,39881
38854,42095,41186,40118,40197,39960,39802,40000
39209,41304,40711,40118,40000,39881,39763,40079
39881,39249,40316,39921,39763,39644,39605,39960
39960,37628,40435,39802,39644,39328,39486,39960
39565,37905,40751,39723,39605,39249,39565,39960
39842,38933,40830,39763,39684,39407,39723,39881
39644,40000,40356,39525,39486,39565,39644,39881
39525,40632,39881,39249,39367,39842,39644,39802
39921,39684,39565,39209,39446,39960,39644,39763
40830,39446,39367,39486,39565,40158,39605,40118
41699,40711,39170,39565,39605,40158,39684,40237
41581,42411,39249,39881,39802,40000,39684,39960
40118,43478,39367,40474,40316,39842,39644,39565
39249,43478,39407,40632,40395,39842,39684,39644
38933,42450,39170,40158,39921,39605,39763,39367
38735,40118,39091,39802,39644,39644,39723,38893
39367,38142,38933,39486,39525,39605,39684,39091
40039,37826,38656,39328,39446,39565,39723,39881
39842,36798,38616,39328,39486,39723,39644,40118
39328,35138,39288,39605,40000,40039,39605,39881
40751,36205,40553,39842,40237,40039,39684,40276
41620,39565,41620,40000,40197,39842,39763,40593
40514,40909,41660,40158,40158,39763,39763,40356
38103,40474,41186,40197,40158,39881,39684,40039
35652,40237,40790,40039,40000,39881,39723,39723
37035,40474,40276,39802,39842,39723,39684,39525
40988,40790,39486,39367,39486,39525,39486,39565
42964,41383,38814,39091,39249,39367,39446,39446
41027,42174,38893,39486,39644,39684,39565,39525
36522,42767,39565,40118,40197,40079,39644,39288
35059,41818,40000,40316,40237,40039,39644,39209
37786,39842,39605,40000,39881,39881,39723,39486
41107,36956,39130,39842,39842,39881,39723,39842
42569,34189,39170,39605,39763,39684,39723,40039
42411,35850,40395,39486,39605,39407,39605,40079
41818,41344,41265,39723,39802,39407,39605,40118
41344,44782,41265,39763,40039,39763,39723,40197
40672,44782,41383,39842,40158,40039,39684,40039
40000,43399,41067,39802,40079,40118,39723,39881
39565,41027,40751,39723,39842,40237,39684,39684
39209,38261,40435,39684,39605,40276,39723,39565
38774,36640,40118,39881,39565,40237,39644,39486
38656,36205,39328,40079,39644,39763,39565,39565
38854,36522,38695,40079,39644,39367,39644,39763
39288,37233,38182,39921,39960,39763,39881,39881
39051,38616,37865,39960,40435,40276,40000,40039
38656,39091,38103,39802,40118,40079,39802,39960
38774,39486,38616,39407,39446,39644,39525,39921
39249,40751,39209,39209,39249,39486,39367,39842
40079,42332,39802,39407,39605,39644,39446,39763
40830,42253,40000,39605,39723,39723,39644,39367
40395,41265,39960,39446,39367,39486,39605,39328
39209,41304,40237,39367,39486,39486,39684,39605
38300,40869,40869,39565,39644,39605,39881,39921
38261,40435,41462,39842,39802,39763,39921,40237
39921,40237,42016,40000,39921,39960,39881,40474
41146,40079,42450,40039,39960,39881,39644,40197
40948,39486,42648,40000,40118,39842,39407,39802
